Wavelength	spectrum00005.asd
350	 16.0071209546475 
351	 17.2571922832671 
352	 16.4189858612358 
353	 16.3157257869654 
354	 19.6756533849564 
355	 21.193498849821 
356	 21.8630321331805 
357	 22.2102566462585 
358	 22.3049154053819 
359	 23.6760038022282 
360	 24.8232841082568 
361	 25.3093020552666 
362	 28.8063964650026 
363	 29.6745642065079 
364	 28.8694511629699 
365	 29.9456202781767 
366	 33.4565511281853 
367	 36.3096369477336 
368	 37.6944674955731 
369	 39.9177469840249 
370	 42.3278098560715 
371	 44.5609964811742 
372	 46.2820831680401 
373	 47.020322186879 
374	 48.2618980684885 
375	 50.3157818528618 
376	 52.6699935474811 
377	 55.3149104966748 
378	 58.4603123570879 
379	 61.7225923438527 
380	 63.3321912713596 
381	 67.0233243770545 
382	 71.529204804898 
383	 74.1383198114356 
384	 75.033492323671 
385	 75.8286427382514 
386	 77.9402642812202 
387	 82.2896704488708 
388	 84.0709296019665 
389	 85.6695069938732 
390	 89.4428507831716 
391	 92.675416946514 
392	 95.5065191411465 
393	 97.8402778326462 
394	 99.7814237033644 
395	 104.054085771282 
396	 108.462242986959 
397	 111.537339185336 
398	 113.948140606768 
399	 119.770868148607 
400	 125.887949997896 
401	 128.166176900027 
402	 131.403142761781 
403	 135.575563381645 
404	 140.446533311298 
405	 145.766675263521 
406	 150.185877270916 
407	 155.51228108172 
408	 162.423381979823 
409	 165.772237297211 
410	 170.479401508815 
411	 177.370380492717 
412	 184.649826934437 
413	 191.425998409195 
414	 198.731784256857 
415	 207.067776022718 
416	 215.45944008878 
417	 223.848529272345 
418	 231.887491486126 
419	 239.455956042635 
420	 247.954964620952 
421	 256.528547056584 
422	 265.386672163713 
423	 276.06685351666 
424	 286.660607704909 
425	 297.099975610416 
426	 307.511748638244 
427	 316.905101117746 
428	 327.05927431651 
429	 338.43367529656 
430	 350.438577589334 
431	 362.343296242419 
432	 374.236554197264 
433	 386.179858661616 
434	 397.800792953366 
435	 409.492866714331 
436	 421.209650952048 
437	 432.847061252456 
438	 445.228099209143 
439	 457.695312885391 
440	 469.715991763538 
441	 481.093027918981 
442	 492.882699101562 
443	 504.199517701639 
444	 514.253725616329 
445	 525.053706034511 
446	 536.228570455861 
447	 547.305896237676 
448	 557.771142909853 
449	 566.932955525329 
450	 576.087173868708 
451	 585.856398185237 
452	 593.871444514736 
453	 601.711340976981 
454	 609.863875797916 
455	 617.909718805627 
456	 622.925687210425 
457	 627.416466128759 
458	 633.023724502205 
459	 638.661379760134 
460	 643.665323089747 
461	 648.282288975847 
462	 653.024662535854 
463	 657.558457594726 
464	 661.413029190019 
465	 665.161666434308 
466	 670.597371739123 
467	 674.297802462813 
468	 677.770127253032 
469	 682.791060344227 
470	 687.241734618966 
471	 690.995738625668 
472	 694.811687069072 
473	 700.05059307149 
474	 706.130566687003 
475	 711.267846752715 
476	 715.099198204972 
477	 721.307929271254 
478	 728.136148822918 
479	 734.558819618242 
480	 740.061150856855 
481	 745.894831392111 
482	 751.612287482012 
483	 757.075999756588 
484	 763.036106601251 
485	 768.541400063454 
486	 774.707930766818 
487	 782.484155864326 
488	 787.901892974502 
489	 793.3667811741 
490	 800.072118772306 
491	 807.373714045423 
492	 815.569793340533 
493	 824.47478816484 
494	 833.855424829696 
495	 843.97258364783 
496	 852.699142421128 
497	 861.746297155597 
498	 875.379256084221 
499	 887.789921967372 
500	 899.778970334937 
501	 912.810147594415 
502	 927.058637561302 
503	 941.261285115968 
504	 956.25985638428 
505	 973.507903077131 
506	 989.290011332432 
507	 1006.85644205447 
508	 1027.69800012975 
509	 1048.96509912895 
510	 1071.38127458015 
511	 1095.25354762082 
512	 1120.68441878122 
513	 1147.03703575541 
514	 1174.49847167295 
515	 1203.67921284664 
516	 1235.60293464787 
517	 1269.53703525447 
518	 1305.54321101033 
519	 1343.49602811341 
520	 1381.84047936913 
521	 1421.97634952727 
522	 1464.30033415489 
523	 1508.26087044581 
524	 1552.5976509777 
525	 1597.3480048362 
526	 1642.65379166976 
527	 1688.36025338298 
528	 1732.84427700262 
529	 1776.38785314153 
530	 1820.38533416345 
531	 1865.55904332295 
532	 1910.80807730875 
533	 1954.92197874773 
534	 1996.78310401779 
535	 2038.77976641239 
536	 2080.13042914 
537	 2119.2405215961 
538	 2156.96220394106 
539	 2196.02458060479 
540	 2235.75959904723 
541	 2271.18923392028 
542	 2307.34605662353 
543	 2343.72755071817 
544	 2379.42240004143 
545	 2418.35977309405 
546	 2454.56575330184 
547	 2488.6279083885 
548	 2526.60051213646 
549	 2563.80868862844 
550	 2599.16028666956 
551	 2632.74067074451 
552	 2666.06973050207 
553	 2697.12009647943 
554	 2725.61294079989 
555	 2752.12392156941 
556	 2775.1049628321 
557	 2796.20369942218 
558	 2815.92822253587 
559	 2831.97616755891 
560	 2844.35133277441 
561	 2853.72180972455 
562	 2860.55695731839 
563	 2861.73413477422 
564	 2860.62275575732 
565	 2858.08468334544 
566	 2851.19206255462 
567	 2844.17082803572 
568	 2835.53863037808 
569	 2823.54786828771 
570	 2811.10975094596 
571	 2803.13252993816 
572	 2799.87907999135 
573	 2797.49092464544 
574	 2795.46485580588 
575	 2794.39371306236 
576	 2796.04875522866 
577	 2804.96049283096 
578	 2814.09415373777 
579	 2824.12614373064 
580	 2839.60344909631 
581	 2857.78431024709 
582	 2873.76239697524 
583	 2885.97794784265 
584	 2899.9592181063 
585	 2905.90489478228 
586	 2907.17507031684 
587	 2910.84760202647 
588	 2913.47400076063 
589	 2916.48226625944 
590	 2919.72550029074 
591	 2920.84526947277 
592	 2921.73805106935 
593	 2920.71880028842 
594	 2916.25490911885 
595	 2910.39612507167 
596	 2905.65900115353 
597	 2902.50285889518 
598	 2899.70632387903 
599	 2898.13029001685 
600	 2897.64634600052 
601	 2897.63605636551 
602	 2896.61372178681 
603	 2896.31064777156 
604	 2895.77209373765 
605	 2893.0624671386 
606	 2890.28632069975 
607	 2886.83069463371 
608	 2882.77750434839 
609	 2879.86656967098 
610	 2876.68676504361 
611	 2872.08322684237 
612	 2865.72351048215 
613	 2860.55144622945 
614	 2856.87309323752 
615	 2854.14353251795 
616	 2851.13804695269 
617	 2849.90321652131 
618	 2849.41285137685 
619	 2849.24265194461 
620	 2853.4223560667 
621	 2857.27518170847 
622	 2861.11889655421 
623	 2868.20218598025 
624	 2874.49480827976 
625	 2881.99415481889 
626	 2891.85484290334 
627	 2901.80335502187 
628	 2912.47739896331 
629	 2922.28971578399 
630	 2929.72923044919 
631	 2939.41223850715 
632	 2946.82019703006 
633	 2950.6661329294 
634	 2954.5851890408 
635	 2955.00558034749 
636	 2952.37549097319 
637	 2948.60449042614 
638	 2946.84404419422 
639	 2943.54781365787 
640	 2937.51422151145 
641	 2929.7336484338 
642	 2923.18190952289 
643	 2917.49132304543 
644	 2911.9527426872 
645	 2906.55093441121 
646	 2901.76914343149 
647	 2898.70846446841 
648	 2898.061172681 
649	 2895.44700442612 
650	 2895.84560008665 
651	 2901.00893121801 
652	 2907.21292233834 
653	 2911.6992561506 
654	 2916.06863194661 
655	 2922.85267054473 
656	 2932.55779298686 
657	 2940.71140075369 
658	 2947.20696274612 
659	 2955.45453715599 
660	 2962.545548844 
661	 2972.01597338641 
662	 2985.66218889215 
663	 2998.84365458253 
664	 3012.52040308892 
665	 3026.42519374118 
666	 3040.52388720279 
667	 3059.24509989767 
668	 3078.23338965671 
669	 3096.16080423152 
670	 3116.78081213135 
671	 3140.21311097131 
672	 3164.80165342244 
673	 3189.203663891 
674	 3215.40703548966 
675	 3244.22924813885 
676	 3274.03593320972 
677	 3301.94449283753 
678	 3334.56221721023 
679	 3368.98342438145 
680	 3403.11154659779 
681	 3439.76412616495 
682	 3479.65452778961 
683	 3522.28901219823 
684	 3566.96609539315 
685	 3615.62729802708 
686	 3667.49142955061 
687	 3722.78495038863 
688	 3783.13732105581 
689	 3852.72483891111 
690	 3929.72927179638 
691	 4013.27005831415 
692	 4109.96857352338 
693	 4219.35033214538 
694	 4342.86532915306 
695	 4482.74780902788 
696	 4637.32479619611 
697	 4810.48483313518 
698	 5004.05779998434 
699	 5215.39229284782 
700	 5447.4475554487 
701	 5694.47692485585 
702	 5950.65719636229 
703	 6223.32844383074 
704	 6506.76785840231 
705	 6797.59321866989 
706	 7095.07036633198 
707	 7400.08891439028 
708	 7712.58187501045 
709	 8032.05946193856 
710	 8357.38700083839 
711	 8689.75695345914 
712	 9027.54592480595 
713	 9368.85432005667 
714	 9717.57916776299 
715	 10071.9142102183 
716	 10430.0072686572 
717	 10790.535033326 
718	 11154.9184087446 
719	 11524.6216379763 
720	 11899.0481873416 
721	 12272.4162883889 
722	 12643.1945741528 
723	 13013.0479395709 
724	 13384.2186153937 
725	 13748.1110699524 
726	 14107.5666132954 
727	 14464.9738792285 
728	 14820.3949288798 
729	 15169.7898767212 
730	 15513.3960965843 
731	 15851.4690789638 
732	 16179.5393027694 
733	 16503.2111919539 
734	 16822.4514886145 
735	 17133.3490817863 
736	 17433.1010309058 
737	 17726.5513406799 
738	 18015.7847819613 
739	 18296.8511581588 
740	 18574.0855175962 
741	 18846.354624757 
742	 19111.235302924 
743	 19369.5558833312 
744	 19610.2520773791 
745	 19833.4617125034 
746	 20049.3398843418 
747	 20279.2918255922 
748	 20504.8993300773 
749	 20718.4850048987 
750	 20940.6363640035 
751	 21153.5221543143 
752	 21360.8616832339 
753	 21568.7648058603 
754	 21765.0635828055 
755	 21960.3938497517 
756	 22158.2453997599 
757	 22355.5736995711 
758	 22544.8055515249 
759	 22724.3899283086 
760	 22897.6898872132 
761	 23074.109895047 
762	 23251.5909980435 
763	 23428.9755352009 
764	 23603.5212984484 
765	 23767.4289179109 
766	 23923.3857738533 
767	 24075.033097889 
768	 24225.8644641307 
769	 24372.9063028032 
770	 24513.2982233392 
771	 24652.6765030988 
772	 24809.3955244167 
773	 24959.9311580749 
774	 25092.4165692354 
775	 25203.0435680618 
776	 25301.1868425345 
777	 25390.6293209971 
778	 25471.5090951151 
779	 25543.3598767516 
780	 25620.3168461253 
781	 25692.0214783422 
782	 25752.9830084674 
783	 25807.4425235357 
784	 25860.4570008675 
785	 25910.3750558589 
786	 25954.2262030616 
787	 25990.4937176155 
788	 26022.3900451846 
789	 26048.4026171669 
790	 26066.1722185028 
791	 26082.2419163607 
792	 26092.080217644 
793	 26096.357369367 
794	 26101.1881989255 
795	 26101.6455114682 
796	 26097.0784587052 
797	 26087.4019097078 
798	 26072.1383702704 
799	 26051.0321340727 
800	 26023.3495466721 
801	 25988.6941013781 
802	 25949.4257108938 
803	 25896.2594149407 
804	 25835.8146797594 
805	 25784.0211484874 
806	 25730.7419374632 
807	 25673.5780984435 
808	 25613.9377260123 
809	 25557.1546164076 
810	 25485.9914238533 
811	 25408.294094297 
812	 25333.7873990073 
813	 25260.1900376411 
814	 25175.1224271393 
815	 25078.8197053465 
816	 24977.1231778124 
817	 24869.3966698958 
818	 24760.1472312336 
819	 24649.8701821483 
820	 24535.6204628484 
821	 24421.2912399929 
822	 24302.6718495852 
823	 24178.7401676099 
824	 24055.7069762758 
825	 23926.8127215876 
826	 23795.4385375685 
827	 23664.3935111826 
828	 23525.1756397337 
829	 23388.1114920219 
830	 23251.6024267854 
831	 23109.7414752952 
832	 22969.0855244502 
833	 22826.3912042452 
834	 22678.9928558722 
835	 22526.3920012586 
836	 22379.0118939121 
837	 22237.5331559814 
838	 22099.7019743285 
839	 21961.6193270158 
840	 21825.0323527986 
841	 21689.5971280568 
842	 21554.1188244267 
843	 21415.8925965196 
844	 21281.5467979294 
845	 21149.8170270414 
846	 21016.8678309207 
847	 20885.2548048992 
848	 20756.7954466067 
849	 20630.3082933412 
850	 20503.0856748087 
851	 20381.4409753005 
852	 20258.9447382044 
853	 20132.5998425035 
854	 20005.9835154786 
855	 19879.6681020442 
856	 19753.5138551254 
857	 19627.7681543279 
858	 19503.5783030097 
859	 19386.895188413 
860	 19274.8922191614 
861	 19161.6674244862 
862	 19043.8295303239 
863	 18914.7612508672 
864	 18782.5059372415 
865	 18659.0207971105 
866	 18529.1586740838 
867	 18397.2268754386 
868	 18267.0156059273 
869	 18139.8299272501 
870	 18009.427991486 
871	 17877.2318183338 
872	 17744.8462016648 
873	 17612.4365845421 
874	 17476.0428773686 
875	 17338.2713390938 
876	 17201.4097014173 
877	 17063.6655266785 
878	 16929.3164381766 
879	 16795.2575955934 
880	 16657.3682320607 
881	 16516.1754458885 
882	 16372.8183711541 
883	 16233.1481881749 
884	 16100.6882431487 
885	 15958.371847344 
886	 15816.6795060074 
887	 15676.9230041451 
888	 15534.1638846777 
889	 15393.4109365431 
890	 15252.5588864994 
891	 15111.4139498887 
892	 14971.8600233588 
893	 14828.6522636479 
894	 14685.5616353175 
895	 14544.8096216127 
896	 14404.4046938773 
897	 14264.0536562446 
898	 14125.7729486649 
899	 13989.6649574974 
900	 13850.9780857601 
901	 13717.0274184422 
902	 13582.147751068 
903	 13441.4220479627 
904	 13301.8200166286 
905	 13169.0372085562 
906	 13039.7666577054 
907	 12908.4386692517 
908	 12776.3787022259 
909	 12642.9184642246 
910	 12510.3492418829 
911	 12381.6004860091 
912	 12255.1845266723 
913	 12129.2055409308 
914	 12002.2174355665 
915	 11874.0827903855 
916	 11749.9051787259 
917	 11626.5218865239 
918	 11503.7281935425 
919	 11383.8608141177 
920	 11262.1985801943 
921	 11140.5667721327 
922	 11020.0388409789 
923	 10899.9789965286 
924	 10781.3902671891 
925	 10661.3783687968 
926	 10539.4095306647 
927	 10418.8715783539 
928	 10302.12866565 
929	 10185.2150956849 
930	 10065.599746601 
931	 9945.38654778259 
932	 9828.62360400222 
933	 9713.78102438643 
934	 9597.78763678883 
935	 9477.49272156658 
936	 9363.68471469943 
937	 9253.88858639685 
938	 9143.52020161344 
939	 9032.5877131256 
940	 8920.77129759527 
941	 8810.09557001037 
942	 8701.46357005651 
943	 8590.82819799573 
944	 8478.66177324157 
945	 8367.09673933916 
946	 8257.83858707455 
947	 8149.28480460905 
948	 8040.27698631495 
949	 7929.47746301697 
950	 7817.28901226555 
951	 7709.65608490813 
952	 7602.13138482826 
953	 7495.55734299431 
954	 7391.88158214297 
955	 7288.48825137513 
956	 7183.21438903514 
957	 7077.53310441121 
958	 6974.3089523901 
959	 6874.42953917881 
960	 6775.34159324161 
961	 6676.08049120387 
962	 6576.74859131008 
963	 6477.48077838019 
964	 6381.04673585846 
965	 6286.70338643191 
966	 6192.19151883701 
967	 6097.54204291241 
968	 6002.20527355212 
969	 5908.15697091941 
970	 5817.61905021996 
971	 5728.29983095639 
972	 5640.03858907842 
973	 5551.8454333916 
974	 5463.11522994566 
975	 5376.47930702943 
976	 5289.79695162018 
977	 5204.29796275488 
978	 5121.53790389722 
979	 5036.92092210515 
980	 4953.75998807111 
981	 4872.28199704278 
982	 4791.66880951931 
983	 4713.87940036284 
984	 4635.49389393229 
985	 4557.98408773355 
986	 4483.34454204925 
987	 4406.76985933971 
988	 4331.32807645995 
989	 4257.15286289788 
990	 4183.55779220489 
991	 4111.46009882605 
992	 4041.62463938479 
993	 3972.13047588018 
994	 3901.32919106431 
995	 3831.25770341996 
996	 3763.50128247081 
997	 3696.7825298265 
998	 3629.84667849276 
999	 3564.23858933872 
1000	 3499.76851942595 
1001	 7601.60518077781 
1002	 7646.06159200067 
1003	 7689.38239245945 
1004	 7732.70255456381 
1005	 7775.38716035805 
1006	 7821.22536917951 
1007	 7873.14351014497 
1008	 7928.93870779195 
1009	 7986.62815301432 
1010	 8045.10293064474 
1011	 8106.05298239007 
1012	 8169.73142245064 
1013	 8233.09037368069 
1014	 8302.86051056386 
1015	 8379.28345631361 
1016	 8453.58834823992 
1017	 8528.66912190721 
1018	 8609.28939262933 
1019	 8688.20829455443 
1020	 8776.60069745671 
1021	 8870.59470019627 
1022	 8958.33657586305 
1023	 9044.65002129728 
1024	 9126.53383972798 
1025	 9208.47886406702 
1026	 9290.74915309501 
1027	 9369.86821513706 
1028	 9449.06336312155 
1029	 9520.22151770714 
1030	 9588.77279784098 
1031	 9651.86979064295 
1032	 9713.69946524436 
1033	 9772.84004379296 
1034	 9823.89095498416 
1035	 9872.53388394939 
1036	 9910.07747107794 
1037	 9941.71087739901 
1038	 9975.44062941204 
1039	 9999.12750909552 
1040	 10026.5182425187 
1041	 10054.4450987304 
1042	 10083.590626709 
1043	 10103.2646165394 
1044	 10120.8801628216 
1045	 10124.7917732019 
1046	 10126.6050297401 
1047	 10132.9624723559 
1048	 10136.0340910246 
1049	 10138.6826514245 
1050	 10141.422019902 
1051	 10145.1387211967 
1052	 10149.2438132502 
1053	 10156.6056889512 
1054	 10169.831665904 
1055	 10179.3779450224 
1056	 10184.6088665484 
1057	 10198.1431063456 
1058	 10213.6532849827 
1059	 10233.6604332125 
1060	 10263.7984155026 
1061	 10291.1639288891 
1062	 10319.6766158798 
1063	 10358.0709606737 
1064	 10399.9139629594 
1065	 10448.8229273016 
1066	 10501.2598332726 
1067	 10557.4828651348 
1068	 10614.0727015361 
1069	 10681.8103807572 
1070	 10755.2984715846 
1071	 10835.3599599258 
1072	 10929.4441578002 
1073	 11022.7550047082 
1074	 11118.5824840221 
1075	 11224.9565902978 
1076	 11340.7841428536 
1077	 11465.7629028772 
1078	 11596.1179983685 
1079	 11737.4678910697 
1080	 11880.7611822692 
1081	 12029.1258910815 
1082	 12173.2003796311 
1083	 12328.0553817028 
1084	 12485.2803967138 
1085	 12636.1352761888 
1086	 12796.3928647656 
1087	 12962.1058494793 
1088	 13124.5765509802 
1089	 13285.8609597575 
1090	 13444.3633978336 
1091	 13597.9844737503 
1092	 13749.9309173188 
1093	 13901.7181995586 
1094	 14056.4916078567 
1095	 14205.7129334069 
1096	 14354.4157153798 
1097	 14494.4382705689 
1098	 14628.3604864481 
1099	 14761.8808990783 
1100	 14890.6139809243 
1101	 15019.2401677541 
1102	 15150.0799131829 
1103	 15280.285013353 
1104	 15413.067486057 
1105	 15544.75102539 
1106	 15663.2002770683 
1107	 15772.8737662505 
1108	 15881.7060845175 
1109	 15978.4451138188 
1110	 16075.6866503192 
1111	 16172.9673207957 
1112	 16269.7401952944 
1113	 16358.2664200057 
1114	 16450.4321016651 
1115	 16540.4037473719 
1116	 16626.2538968736 
1117	 16710.2283081934 
1118	 16789.0533749916 
1119	 16864.270264892 
1120	 16929.522965492 
1121	 17006.7047550923 
1122	 17085.8931579345 
1123	 17163.862378329 
1124	 17250.1570310459 
1125	 17333.0186389418 
1126	 17410.7781462487 
1127	 17490.2880376874 
1128	 17579.6233670481 
1129	 17656.8471819711 
1130	 17725.1486705348 
1131	 17793.8859539178 
1132	 17855.4730696384 
1133	 17902.9997239306 
1134	 17963.0459520736 
1135	 18022.4947915705 
1136	 18084.8810297925 
1137	 18157.4711962906 
1138	 18219.3667427278 
1139	 18282.7807133939 
1140	 18339.6761462139 
1141	 18389.9326836164 
1142	 18433.2205135621 
1143	 18477.1334492397 
1144	 18514.1200127946 
1145	 18555.4975878118 
1146	 18601.3627282559 
1147	 18645.1998406717 
1148	 18692.1482212067 
1149	 18735.7783019393 
1150	 18775.8484858966 
1151	 18818.0417953266 
1152	 18858.5703745305 
1153	 18902.6578029325 
1154	 18950.6854173992 
1155	 18997.0363931294 
1156	 19043.1963508222 
1157	 19093.1977280431 
1158	 19141.8014985264 
1159	 19182.6606822234 
1160	 19226.5847813892 
1161	 19274.0265347609 
1162	 19314.7880685936 
1163	 19352.6985266344 
1164	 19389.4946083413 
1165	 19422.8312764986 
1166	 19455.0284087508 
1167	 19487.3191315989 
1168	 19516.0823873698 
1169	 19540.9422881115 
1170	 19564.7280051805 
1171	 19584.4151343211 
1172	 19605.6335094355 
1173	 19628.0623427016 
1174	 19654.545374344 
1175	 19680.649201666 
1176	 19711.2622592955 
1177	 19735.0854140876 
1178	 19757.5399276817 
1179	 19776.7678003848 
1180	 19791.193430101 
1181	 19808.476780057 
1182	 19823.1743817363 
1183	 19840.9336015556 
1184	 19862.7774621558 
1185	 19880.1288527424 
1186	 19895.3630228775 
1187	 19912.5699345169 
1188	 19927.6240668023 
1189	 19943.6526729384 
1190	 19961.946583566 
1191	 19981.6322655354 
1192	 20005.3749514897 
1193	 20031.8302715844 
1194	 20058.4040348377 
1195	 20092.8657129988 
1196	 20117.8635754977 
1197	 20134.8822862439 
1198	 20158.6419632008 
1199	 20179.0702880058 
1200	 20205.7327919268 
1201	 20240.8597680277 
1202	 20273.3255156468 
1203	 20308.061201897 
1204	 20339.7507310862 
1205	 20376.5220276619 
1206	 20409.7951828439 
1207	 20442.6931326191 
1208	 20474.9355090254 
1209	 20509.6396571367 
1210	 20541.2553039794 
1211	 20578.9003825773 
1212	 20625.8328701976 
1213	 20663.3323514513 
1214	 20697.7897084769 
1215	 20733.3595447245 
1216	 20764.0712794633 
1217	 20797.1411891362 
1218	 20830.5370092734 
1219	 20867.9210701025 
1220	 20909.0503115166 
1221	 20948.3101860563 
1222	 20985.2562383372 
1223	 21027.2738875239 
1224	 21057.9601081863 
1225	 21079.6566023965 
1226	 21104.2127151604 
1227	 21124.5621138718 
1228	 21146.8947106923 
1229	 21171.4057351146 
1230	 21191.3784358666 
1231	 21209.3042170946 
1232	 21226.3755781457 
1233	 21240.7406538321 
1234	 21254.0964188746 
1235	 21269.283293312 
1236	 21279.2144064391 
1237	 21285.8636765623 
1238	 21290.4209861833 
1239	 21288.8200122818 
1240	 21281.249140635 
1241	 21273.766811645 
1242	 21260.6322235944 
1243	 21250.5933429553 
1244	 21239.33578093 
1245	 21230.458723027 
1246	 21223.795362763 
1247	 21215.019728918 
1248	 21209.4422701522 
1249	 21198.2990281319 
1250	 21182.1893727639 
1251	 21167.0956813589 
1252	 21145.6804512052 
1253	 21130.4566885334 
1254	 21117.8962106646 
1255	 21107.9769079171 
1256	 21098.1698576097 
1257	 21094.4344512936 
1258	 21082.130776838 
1259	 21066.2184899234 
1260	 21051.2395759731 
1261	 21034.4936568894 
1262	 21015.1005462624 
1263	 20994.0226170277 
1264	 20973.5855609945 
1265	 20953.9552002275 
1266	 20927.8383721831 
1267	 20903.7267619028 
1268	 20870.8272093963 
1269	 20829.9582852789 
1270	 20784.1331149925 
1271	 20730.2625579717 
1272	 20676.3824102493 
1273	 20617.8812010752 
1274	 20550.8563955623 
1275	 20490.7491447485 
1276	 20433.5793603958 
1277	 20369.4254656521 
1278	 20303.701502009 
1279	 20237.6802571832 
1280	 20166.6202660007 
1281	 20096.8186099125 
1282	 20029.1573440641 
1283	 19959.3377951197 
1284	 19880.1459969505 
1285	 19812.9516872591 
1286	 19751.1350596124 
1287	 19691.4853183433 
1288	 19639.3886161262 
1289	 19588.3312817781 
1290	 19535.5422243685 
1291	 19487.7671048495 
1292	 19449.8025871676 
1293	 19419.8646270077 
1294	 19389.9358027295 
1295	 19365.5261627299 
1296	 19346.9753272986 
1297	 19328.0830153099 
1298	 19319.8674492173 
1299	 19325.7175589676 
1300	 19327.5257574795 
1301	 19332.88965409 
1302	 19339.7532543702 
1303	 19345.5932417467 
1304	 19357.1798856843 
1305	 19373.6739996868 
1306	 19391.437288735 
1307	 19415.7366580044 
1308	 19437.1807780229 
1309	 19456.5969945836 
1310	 19478.3373623345 
1311	 19501.428714337 
1312	 19522.7109141235 
1313	 19550.4577372379 
1314	 19584.3610114374 
1315	 19614.6179678119 
1316	 19647.3012502823 
1317	 19677.2785298403 
1318	 19704.9855876348 
1319	 19734.2519783447 
1320	 19766.4922873237 
1321	 19793.0880735177 
1322	 19818.625261349 
1323	 19840.0811953866 
1324	 19853.0595362385 
1325	 19870.1975205628 
1326	 19887.2139366489 
1327	 19905.561026917 
1328	 19921.5559875915 
1329	 19938.7280389398 
1330	 19951.453631802 
1331	 19958.7459744053 
1332	 19970.0159933801 
1333	 19984.0283779289 
1334	 19990.9032650808 
1335	 19998.5436164015 
1336	 19999.1782800876 
1337	 19989.9132495645 
1338	 19984.2209916306 
1339	 19977.3293916768 
1340	 19969.1234315164 
1341	 19964.9733855193 
1342	 19951.5619553926 
1343	 19938.4449553636 
1344	 19911.9838029067 
1345	 19873.9993617369 
1346	 19831.5631174485 
1347	 19779.6133367696 
1348	 19724.0525924929 
1349	 19664.5607067507 
1350	 19592.271055172 
1351	 19508.6351237543 
1352	 19409.0780335704 
1353	 19313.3037606606 
1354	 19205.824463077 
1355	 19106.7978724557 
1356	 19012.2600192017 
1357	 18912.4417007587 
1358	 18806.2844517094 
1359	 18708.5161376166 
1360	 18593.0041268494 
1361	 18517.6363614229 
1362	 18452.0450659035 
1363	 18420.7140213132 
1364	 18445.1919604472 
1365	 18448.9859872895 
1366	 18466.8947548537 
1367	 18482.1029152945 
1368	 18488.2024344599 
1369	 18496.5808951717 
1370	 18521.1491436131 
1371	 18555.1282088308 
1372	 18574.1126852641 
1373	 18609.5112891666 
1374	 18588.3161674424 
1375	 18559.6358750373 
1376	 18465.0960454499 
1377	 18315.2847785918 
1378	 18147.551396875 
1379	 17906.7368293435 
1380	 17712.7375510081 
1381	 17482.2061466086 
1382	 17324.1831398017 
1383	 17213.9779606109 
1384	 17111.0980356317 
1385	 17075.5471261959 
1386	 16995.4070403397 
1387	 16926.7316116358 
1388	 16815.4534176078 
1389	 16679.8774507657 
1390	 16511.7091278149 
1391	 16315.3504690667 
1392	 16097.325622867 
1393	 15872.4352482311 
1394	 15647.7593833968 
1395	 15445.475031575 
1396	 15252.3230038846 
1397	 15067.2119181372 
1398	 14898.6626302582 
1399	 14731.2112861739 
1400	 14565.7666552635 
1401	 14410.2338170807 
1402	 14267.4370104829 
1403	 14121.9965252463 
1404	 13977.4821675285 
1405	 13842.6199280927 
1406	 13705.7851642183 
1407	 13587.4820622004 
1408	 13484.8154413068 
1409	 13385.9955302224 
1410	 13303.7722501846 
1411	 13218.0605540211 
1412	 13131.3662470288 
1413	 13053.5536534013 
1414	 12981.0823173728 
1415	 12911.5411682757 
1416	 12849.4877348008 
1417	 12789.008521233 
1418	 12723.9138861279 
1419	 12660.2464116337 
1420	 12606.1747913778 
1421	 12556.6498522346 
1422	 12511.3362149118 
1423	 12475.8079055198 
1424	 12436.6302779784 
1425	 12396.2353681714 
1426	 12361.6130841217 
1427	 12326.974855903 
1428	 12301.6883108969 
1429	 12285.0265604496 
1430	 12267.6454294967 
1431	 12258.626886869 
1432	 12245.4463681827 
1433	 12228.447364568 
1434	 12216.3300870504 
1435	 12203.3767824285 
1436	 12196.1425283425 
1437	 12195.6260155329 
1438	 12195.3124760078 
1439	 12199.6563342994 
1440	 12202.315835442 
1441	 12206.1909565728 
1442	 12208.0839716865 
1443	 12204.8110357708 
1444	 12202.4980345416 
1445	 12207.5502210435 
1446	 12214.7365888344 
1447	 12222.3873112459 
1448	 12237.9128675634 
1449	 12247.9224598811 
1450	 12255.043573965 
1451	 12262.4004052362 
1452	 12268.0981058678 
1453	 12277.7350757596 
1454	 12286.1867512767 
1455	 12297.6798014393 
1456	 12315.0617814591 
1457	 12329.7800406198 
1458	 12346.5733025971 
1459	 12358.7446937154 
1460	 12367.5444815525 
1461	 12378.2063511625 
1462	 12384.7913796009 
1463	 12394.6645171813 
1464	 12407.5921221575 
1465	 12420.5637573492 
1466	 12432.8272310333 
1467	 12448.5789679739 
1468	 12467.6586721108 
1469	 12485.7559370846 
1470	 12507.3384084906 
1471	 12531.6604979368 
1472	 12552.8855930864 
1473	 12579.2455600557 
1474	 12602.6891227093 
1475	 12625.3894346952 
1476	 12648.5363131702 
1477	 12670.4337077707 
1478	 12695.9019659458 
1479	 12722.5722753199 
1480	 12750.1536842191 
1481	 12781.0051501727 
1482	 12810.1445396177 
1483	 12839.9429775102 
1484	 12868.1907954415 
1485	 12895.4861871692 
1486	 12923.0441676198 
1487	 12950.6114587357 
1488	 12976.2686975577 
1489	 13001.5380615652 
1490	 13025.859413215 
1491	 13046.8732915964 
1492	 13069.607862315 
1493	 13092.9016874656 
1494	 13116.5990589947 
1495	 13142.2226908125 
1496	 13165.6535438953 
1497	 13186.1933122349 
1498	 13209.7596841614 
1499	 13233.5140667033 
1500	 13257.4779264736 
1501	 13283.1178548535 
1502	 13312.3473481028 
1503	 13332.8974980318 
1504	 13354.2929704194 
1505	 13374.7044139218 
1506	 13392.2230593593 
1507	 13412.7073363289 
1508	 13434.2694017698 
1509	 13456.3905617133 
1510	 13481.4756808281 
1511	 13500.7569217321 
1512	 13518.3033099511 
1513	 13534.8864445871 
1514	 13545.2333549836 
1515	 13562.7990440916 
1516	 13585.0064684045 
1517	 13603.6784061724 
1518	 13624.1442179772 
1519	 13641.6555585453 
1520	 13655.4506050026 
1521	 13671.4971014324 
1522	 13688.197309233 
1523	 13704.1815623356 
1524	 13723.3739166991 
1525	 13735.105624632 
1526	 13740.5764173052 
1527	 13750.1493950668 
1528	 13754.4721133555 
1529	 13764.4324480699 
1530	 13783.7910383428 
1531	 13795.8794354237 
1532	 13803.5270332463 
1533	 13814.7911845372 
1534	 13829.3710178917 
1535	 13836.4087778372 
1536	 13838.6471815112 
1537	 13845.2862998446 
1538	 13843.77498945 
1539	 13849.7785519278 
1540	 13863.1613865669 
1541	 13881.9493281664 
1542	 13899.4730035111 
1543	 13913.1228971394 
1544	 13922.8098344966 
1545	 13928.5917527581 
1546	 13937.2355397283 
1547	 13944.0303808724 
1548	 13949.2827769125 
1549	 13955.5949325304 
1550	 13960.6988465702 
1551	 13961.0402388167 
1552	 13965.9345735125 
1553	 13974.5353516305 
1554	 13980.5384279074 
1555	 13986.0098686239 
1556	 13991.5712299107 
1557	 13998.3663966141 
1558	 14001.3639601389 
1559	 14001.7973095216 
1560	 14003.5566545124 
1561	 14002.8943410339 
1562	 14004.0798106845 
1563	 14009.9894824399 
1564	 14008.8466484868 
1565	 14002.8597352696 
1566	 13999.6736602132 
1567	 13990.3970601881 
1568	 13989.9288754486 
1569	 13998.7270473715 
1570	 14000.6837380405 
1571	 14006.1044575565 
1572	 14005.0208004929 
1573	 13994.1671843296 
1574	 13989.5053043042 
1575	 13984.7242901958 
1576	 13981.4341605468 
1577	 13981.5344641332 
1578	 13980.8953196459 
1579	 13983.3522781991 
1580	 13980.2405187779 
1581	 13973.3046742433 
1582	 13968.1057169265 
1583	 13956.3631474757 
1584	 13951.1756166264 
1585	 13956.5044015869 
1586	 13953.372448754 
1587	 13948.7609150128 
1588	 13942.4968071542 
1589	 13928.6863329596 
1590	 13917.2776930118 
1591	 13907.3189687568 
1592	 13897.0314184289 
1593	 13884.7058076254 
1594	 13875.2215223602 
1595	 13870.2743633794 
1596	 13861.2873782598 
1597	 13852.3089471627 
1598	 13843.5028764054 
1599	 13836.0786007478 
1600	 13825.7135158079 
1601	 13822.1368506409 
1602	 13826.2259783358 
1603	 13818.9165160096 
1604	 13809.3624145159 
1605	 13800.4183010707 
1606	 13785.2719461633 
1607	 13774.5216104943 
1608	 13769.0224565756 
1609	 13756.6323868688 
1610	 13740.2888318353 
1611	 13725.2378373582 
1612	 13708.2224951384 
1613	 13692.6923413854 
1614	 13678.7128270342 
1615	 13661.569526637 
1616	 13644.0240128216 
1617	 13623.7538554367 
1618	 13598.7658898104 
1619	 13578.471336463 
1620	 13559.1254728427 
1621	 13539.4930159083 
1622	 13523.1429878899 
1623	 13502.0110043367 
1624	 13478.802486788 
1625	 13454.3641836425 
1626	 13428.6521932025 
1627	 13399.9496322724 
1628	 13366.9943932813 
1629	 13337.1322898023 
1630	 13305.3675212869 
1631	 13276.4236987065 
1632	 13252.0137063904 
1633	 13223.3708466181 
1634	 13194.0480166265 
1635	 13162.9497428364 
1636	 13128.944948926 
1637	 13096.0825649758 
1638	 13061.5470600834 
1639	 13029.4913419136 
1640	 13000.8651520787 
1641	 12967.7017139565 
1642	 12932.7240299012 
1643	 12898.6831021659 
1644	 12860.1191855219 
1645	 12827.8138923853 
1646	 12803.1876449611 
1647	 12770.7550400241 
1648	 12740.1755483618 
1649	 12701.4049770373 
1650	 12652.9468934729 
1651	 12607.7260231752 
1652	 12557.9829171983 
1653	 12513.0682710407 
1654	 12471.0350487016 
1655	 12428.1235636961 
1656	 12389.8069901352 
1657	 12344.8108669944 
1658	 12298.0587620674 
1659	 12247.0983302554 
1660	 12187.2361821928 
1661	 12133.4888411242 
1662	 12075.8767224724 
1663	 12026.6167946675 
1664	 11989.6053022426 
1665	 11942.7139979183 
1666	 11893.3817328095 
1667	 11846.7234762437 
1668	 11796.3685188723 
1669	 11746.6229942809 
1670	 11698.1919068868 
1671	 11653.7893638514 
1672	 11607.4919607645 
1673	 11566.7743816751 
1674	 11538.1857192466 
1675	 11499.6905703617 
1676	 11454.8547299088 
1677	 11415.2341239478 
1678	 11375.5712141985 
1679	 11334.5713976941 
1680	 11301.9205165016 
1681	 11257.6190820459 
1682	 11202.0638577251 
1683	 11151.2373090964 
1684	 11093.2313074224 
1685	 11044.3686499912 
1686	 11005.2674587467 
1687	 10958.4382665859 
1688	 10908.8671538844 
1689	 10864.3220511416 
1690	 10817.3456020394 
1691	 10774.605067547 
1692	 10742.6336386769 
1693	 10703.1127098305 
1694	 10659.3436552949 
1695	 10615.3335214939 
1696	 10567.9371165824 
1697	 10522.8185536342 
1698	 10479.7348853363 
1699	 10435.1078180516 
1700	 10386.9780260454 
1701	 10344.657551322 
1702	 10304.4653618159 
1703	 10264.0257188423 
1704	 10227.1985853607 
1705	 10191.4509213407 
1706	 10155.7062472057 
1707	 10119.2975736127 
1708	 10087.7219379101 
1709	 10052.9704748449 
1710	 10014.450369549 
1711	 9975.57917014325 
1712	 9935.74656314362 
1713	 9893.53248039058 
1714	 9849.45161045791 
1715	 9806.98112307044 
1716	 9763.86615521288 
1717	 9720.81007749929 
1718	 9678.6644227548 
1719	 9634.11499589769 
1720	 9586.70793632401 
1721	 9543.47414967018 
1722	 9501.25577578176 
1723	 9461.07342780706 
1724	 9424.39683034699 
1725	 9386.07139570601 
1726	 9348.25713774992 
1727	 9306.03708147051 
1728	 9258.35371237805 
1729	 9219.27924153846 
1730	 9181.92282633318 
1731	 9146.85674983112 
1732	 9120.40846151046 
1733	 9087.7271525897 
1734	 9050.62707708309 
1735	 9017.73135256713 
1736	 8986.99092849455 
1737	 8952.47273409744 
1738	 8918.4725313944 
1739	 8883.11277744109 
1740	 8844.63231734027 
1741	 8806.20325378568 
1742	 8768.33348842208 
1743	 8726.72955349778 
1744	 8681.83898111768 
1745	 8642.2298382221 
1746	 8602.33239863024 
1747	 8564.188932808 
1748	 8523.04148011338 
1749	 8482.59656578838 
1750	 8445.72743924527 
1751	 8410.955059486 
1752	 8373.78313758386 
1753	 8333.65104659692 
1754	 8287.13567442306 
1755	 8242.98903276579 
1756	 8201.18464403403 
1757	 8156.3067421549 
1758	 8118.7561916659 
1759	 8077.66081988302 
1760	 8033.48368298481 
1761	 7996.64521873089 
1762	 7953.96534559356 
1763	 7910.51516376534 
1764	 7872.36168525672 
1765	 7829.35266320815 
1766	 7789.66317978821 
1767	 7752.46709970616 
1768	 7715.79597411928 
1769	 7682.53402916785 
1770	 7647.16784335469 
1771	 7612.53798325387 
1772	 7569.34597068922 
1773	 7525.55778806643 
1774	 7489.57715620493 
1775	 7454.34294142007 
1776	 7420.63802735361 
1777	 7385.25898558945 
1778	 7349.81964496853 
1779	 7313.53339520135 
1780	 7281.73788784811 
1781	 7251.3710502901 
1782	 7215.48836343673 
1783	 7174.07547474169 
1784	 7134.33896190284 
1785	 7092.90237418736 
1786	 7053.34047083536 
1787	 7013.87805568593 
1788	 6979.02619908885 
1789	 6948.66530920519 
1790	 6916.29755626933 
1791	 6888.96139296868 
1792	 6854.19407176815 
1793	 6812.8061065597 
1794	 6772.59386634053 
1795	 6728.53875572776 
1796	 6690.12673777057 
1797	 6653.0967007139 
1798	 6608.81704442293 
1799	 6560.0074947904 
1800	 6516.51001436462 
1801	 11516.9003965673 
1802	 11646.1418842951 
1803	 11770.2163282579 
1804	 11892.2001475842 
1805	 12004.4894335399 
1806	 12119.7191509883 
1807	 12235.5891369044 
1808	 12335.9126412521 
1809	 12437.0615689119 
1810	 12516.9783570911 
1811	 12569.18326178 
1812	 12631.8028291469 
1813	 12691.9902358513 
1814	 12736.4572695846 
1815	 12783.6838090111 
1816	 12834.9038985952 
1817	 12862.1456322604 
1818	 12891.5636743972 
1819	 12943.0967562128 
1820	 13008.5977675379 
1821	 13068.4972942073 
1822	 13145.4976495739 
1823	 13220.6543087518 
1824	 13267.2448213549 
1825	 13323.6128795887 
1826	 13365.4574378271 
1827	 13404.0335997273 
1828	 13451.1506594742 
1829	 13507.0931672195 
1830	 13541.0970385087 
1831	 13576.4230324704 
1832	 13603.1780005325 
1833	 13585.3590073796 
1834	 13569.3505999405 
1835	 13546.6231351417 
1836	 13529.2034764153 
1837	 13539.2294147762 
1838	 13561.5222410489 
1839	 13622.6926811837 
1840	 13749.7199504349 
1841	 13830.0882495072 
1842	 13927.9886467142 
1843	 14017.6168243 
1844	 14027.4758005259 
1845	 14025.8714110657 
1846	 14037.1379706237 
1847	 14050.0852541247 
1848	 14086.9304424488 
1849	 14181.0987928357 
1850	 14213.9273189 
1851	 14234.6127070777 
1852	 14241.9240318809 
1853	 14212.0766401344 
1854	 14178.6403033417 
1855	 14150.352703005 
1856	 14122.188077096 
1857	 14108.9476477226 
1858	 14080.7075886189 
1859	 14057.9222894138 
1860	 14066.034183151 
1861	 14022.4737137358 
1862	 13969.1937190912 
1863	 13890.6733850918 
1864	 13743.7078483393 
1865	 13551.8860657673 
1866	 13303.008257658 
1867	 13026.9555260154 
1868	 12739.9080924661 
1869	 12469.5200562323 
1870	 12254.6926199672 
1871	 12071.9250489507 
1872	 11920.5294963705 
1873	 11838.3494711522 
1874	 11783.3696730015 
1875	 11730.4006418039 
1876	 11699.8997787316 
1877	 11654.0619006448 
1878	 11576.1181976011 
1879	 11462.9575372621 
1880	 11307.7009145424 
1881	 11139.7195989082 
1882	 10933.3073246543 
1883	 10725.1466796483 
1884	 10519.0298253391 
1885	 10309.8568078319 
1886	 10105.4392118393 
1887	 9905.41758750092 
1888	 9698.88579065805 
1889	 9496.13401469686 
1890	 9314.91273743006 
1891	 9148.31116386513 
1892	 8990.19611589496 
1893	 8846.3174082952 
1894	 8718.20627905632 
1895	 8576.64682571767 
1896	 8413.02650987278 
1897	 8243.13993051707 
1898	 8088.95681067936 
1899	 7949.81576265009 
1900	 7811.10330039428 
1901	 7694.10367539631 
1902	 7597.75518961447 
1903	 7514.97904858105 
1904	 7443.0042699466 
1905	 7402.73930700174 
1906	 7392.00517309167 
1907	 7381.62228422779 
1908	 7371.19661751843 
1909	 7373.22918748506 
1910	 7336.41200503124 
1911	 7282.094416292 
1912	 7249.06066331591 
1913	 7213.90933791352 
1914	 7167.62181657383 
1915	 7147.84701621631 
1916	 7133.624826631 
1917	 7096.89301885506 
1918	 7077.75710570952 
1919	 7049.03845529156 
1920	 7026.37497180338 
1921	 7032.8749856599 
1922	 7027.95777720816 
1923	 7032.76547276162 
1924	 7041.02968667166 
1925	 7060.70622286069 
1926	 7064.21452725157 
1927	 7070.31498411183 
1928	 7077.87478267277 
1929	 7086.50604835357 
1930	 7105.20522045838 
1931	 7129.15400934816 
1932	 7145.14739868624 
1933	 7165.80218074541 
1934	 7177.51907472164 
1935	 7187.12556232042 
1936	 7190.02315988752 
1937	 7206.51605728666 
1938	 7212.38019746588 
1939	 7230.0288706853 
1940	 7247.85699661707 
1941	 7261.52222684917 
1942	 7295.29163759761 
1943	 7312.69051062819 
1944	 7324.75567566243 
1945	 7347.75912984679 
1946	 7373.10204970749 
1947	 7402.26954262156 
1948	 7422.22427286858 
1949	 7445.71345388775 
1950	 7462.62234652956 
1951	 7471.24699109718 
1952	 7475.70852484016 
1953	 7495.8159498024 
1954	 7530.99852494021 
1955	 7556.18125801866 
1956	 7579.63332700738 
1957	 7610.39749046332 
1958	 7635.9131669751 
1959	 7658.7184075657 
1960	 7682.18272787022 
1961	 7699.02936730334 
1962	 7718.10473796878 
1963	 7738.53099202369 
1964	 7756.16008949983 
1965	 7792.11837974589 
1966	 7818.88608942039 
1967	 7838.91139519269 
1968	 7867.26209912018 
1969	 7873.79301270685 
1970	 7887.83747276359 
1971	 7903.95684457402 
1972	 7919.52901057072 
1973	 7926.60988416765 
1974	 7954.25126982638 
1975	 7982.62611174358 
1976	 7995.82314741814 
1977	 8022.12231317536 
1978	 8046.35924357322 
1979	 8070.29326781614 
1980	 8096.03462703159 
1981	 8118.8066350527 
1982	 8133.75772794683 
1983	 8147.43408369547 
1984	 8151.41377783237 
1985	 8167.45925616402 
1986	 8184.02421670935 
1987	 8208.11869681155 
1988	 8237.01819621944 
1989	 8261.55492808778 
1990	 8283.93308507213 
1991	 8300.78308092216 
1992	 8317.89574311954 
1993	 8327.2921742478 
1994	 8337.40489324731 
1995	 8339.96792890602 
1996	 8353.94071807918 
1997	 8373.57615732829 
1998	 8391.23922129429 
1999	 8415.45379535739 
2000	 8435.99917438145 
2001	 8442.62954649851 
2002	 8448.87235242889 
2003	 8461.64829596806 
2004	 8470.54971504616 
2005	 8486.4051037398 
2006	 8506.82036766995 
2007	 8524.33926224717 
2008	 8545.15259863158 
2009	 8557.61593763863 
2010	 8564.12724821442 
2011	 8572.40551843842 
2012	 8574.21277572414 
2013	 8579.33709940135 
2014	 8589.57226672747 
2015	 8606.81762452107 
2016	 8628.29066487989 
2017	 8628.41615295782 
2018	 8629.2489483607 
2019	 8628.17941240573 
2020	 8629.10051819589 
2021	 8633.76638429493 
2022	 8633.75259386127 
2023	 8626.88364710448 
2024	 8627.90354273628 
2025	 8631.24583866143 
2026	 8627.80269430733 
2027	 8631.46956953444 
2028	 8638.31777762363 
2029	 8633.76581605373 
2030	 8626.15035455479 
2031	 8618.80245552279 
2032	 8607.64720279079 
2033	 8597.74115831928 
2034	 8587.9626624807 
2035	 8577.43411889468 
2036	 8562.08785671709 
2037	 8554.3153239111 
2038	 8555.28796062275 
2039	 8544.66776163147 
2040	 8533.19002714308 
2041	 8520.26576644592 
2042	 8495.76271080207 
2043	 8471.75158818494 
2044	 8458.18433770998 
2045	 8448.79298175004 
2046	 8436.53366355787 
2047	 8426.72496817913 
2048	 8413.37099104386 
2049	 8394.29650225242 
2050	 8375.91094539144 
2051	 8353.29052644201 
2052	 8339.8914579894 
2053	 8329.87276283333 
2054	 8319.13714113375 
2055	 8311.37360127886 
2056	 8305.16145393814 
2057	 8292.03776675366 
2058	 8286.10372272988 
2059	 8282.7737612659 
2060	 8272.26120154706 
2061	 8259.6702880025 
2062	 8234.27028158709 
2063	 8226.34389389036 
2064	 8228.03539252668 
2065	 8221.07211112584 
2066	 8222.02753497245 
2067	 8215.12679802575 
2068	 8194.05267175235 
2069	 8184.04114581906 
2070	 8186.71922991015 
2071	 8181.01109108096 
2072	 8170.80818229754 
2073	 8160.70112598227 
2074	 8147.77744027323 
2075	 8139.07126924589 
2076	 8130.28472499184 
2077	 8127.56620446939 
2078	 8123.70931983576 
2079	 8116.42228319788 
2080	 8111.20971925037 
2081	 8111.46532479279 
2082	 8108.07818607831 
2083	 8105.65693952951 
2084	 8096.31802708563 
2085	 8082.55113163972 
2086	 8067.99603946575 
2087	 8052.71514399144 
2088	 8053.47993603274 
2089	 8058.56029494244 
2090	 8063.99828435019 
2091	 8063.37040212566 
2092	 8057.99473110368 
2093	 8051.36198011236 
2094	 8034.47888692217 
2095	 8031.22734643075 
2096	 8032.38540508868 
2097	 8031.39756261059 
2098	 8044.04199110494 
2099	 8045.83729087352 
2100	 8042.06559170232 
2101	 8033.64120910588 
2102	 8025.17774770806 
2103	 8013.93408053097 
2104	 8005.91499867123 
2105	 8005.8493663431 
2106	 8001.66731135998 
2107	 7993.86059137517 
2108	 7988.10134314432 
2109	 7980.81045136278 
2110	 7973.0696838417 
2111	 7965.58435912483 
2112	 7959.96405079585 
2113	 7948.62685150724 
2114	 7947.73733148389 
2115	 7962.02192405873 
2116	 7963.02475594756 
2117	 7961.65250742166 
2118	 7960.35431815231 
2119	 7949.63355955602 
2120	 7942.67262799698 
2121	 7944.97890402469 
2122	 7945.20335453293 
2123	 7951.56237679106 
2124	 7953.1406607843 
2125	 7950.2417875252 
2126	 7944.54567565486 
2127	 7936.8866711708 
2128	 7922.18548678725 
2129	 7912.25443543473 
2130	 7902.63334040827 
2131	 7897.29489984701 
2132	 7892.50055268646 
2133	 7891.82689504767 
2134	 7899.4105138395 
2135	 7897.18975038576 
2136	 7904.94284607789 
2137	 7904.07289613229 
2138	 7887.59466262472 
2139	 7883.66831606508 
2140	 7869.8682406371 
2141	 7855.99397425163 
2142	 7858.7751747271 
2143	 7852.59203164897 
2144	 7845.76549756034 
2145	 7840.3128989005 
2146	 7832.89058119916 
2147	 7818.82130121914 
2148	 7811.92202267603 
2149	 7806.76713684965 
2150	 7803.83969521119 
2151	 7806.97256876735 
2152	 7802.56679745631 
2153	 7808.55495688224 
2154	 7807.41887862388 
2155	 7785.07561763121 
2156	 7775.93412271647 
2157	 7755.76380611415 
2158	 7733.65706484711 
2159	 7735.84605555673 
2160	 7734.63242272569 
2161	 7723.25001025953 
2162	 7706.36864081232 
2163	 7696.24900361161 
2164	 7678.84750687562 
2165	 7667.78963712016 
2166	 7669.41506574759 
2167	 7660.68925582961 
2168	 7643.9969603815 
2169	 7631.90181934569 
2170	 7619.77700240758 
2171	 7609.08037898375 
2172	 7601.89211562496 
2173	 7592.30090139121 
2174	 7574.48648946803 
2175	 7561.49181144943 
2176	 7553.83743922966 
2177	 7540.03147298936 
2178	 7531.39143296384 
2179	 7525.13365147336 
2180	 7512.59882524106 
2181	 7502.03789939363 
2182	 7492.43426104889 
2183	 7486.52112375179 
2184	 7472.45156308519 
2185	 7456.49737806876 
2186	 7441.08258463205 
2187	 7420.57746521941 
2188	 7403.99101840495 
2189	 7387.79422553073 
2190	 7371.85720413384 
2191	 7354.31665931482 
2192	 7345.18203763456 
2193	 7334.0924714637 
2194	 7307.51205024526 
2195	 7281.21666449901 
2196	 7248.29254271648 
2197	 7218.26328918888 
2198	 7200.26759399127 
2199	 7179.97520866558 
2200	 7157.6850193224 
2201	 7132.37940379031 
2202	 7109.98380039607 
2203	 7085.40640063813 
2204	 7061.94950794504 
2205	 7037.86114682337 
2206	 7009.04649350147 
2207	 6987.54838401731 
2208	 6970.49501471501 
2209	 6950.40717831513 
2210	 6934.4645761775 
2211	 6915.59070637287 
2212	 6894.12727656099 
2213	 6872.80848829103 
2214	 6852.06798848126 
2215	 6827.55195603353 
2216	 6808.21674261131 
2217	 6790.87026598485 
2218	 6768.1850988861 
2219	 6749.32285053563 
2220	 6718.74865469779 
2221	 6680.56239548937 
2222	 6651.8766990056 
2223	 6617.22049539684 
2224	 6577.5139106595 
2225	 6544.29582809194 
2226	 6515.20307251093 
2227	 6480.60934551128 
2228	 6449.02305793172 
2229	 6425.89102482479 
2230	 6395.20677812846 
2231	 6360.24893154896 
2232	 6324.56913037903 
2233	 6287.71507056494 
2234	 6248.49409839136 
2235	 6203.6937869345 
2236	 6162.57230749338 
2237	 6121.2839638032 
2238	 6081.03926474661 
2239	 6041.67183622342 
2240	 6007.532156741 
2241	 5963.22864092285 
2242	 5909.34873343247 
2243	 5860.79377574283 
2244	 5817.18659759314 
2245	 5781.14407760277 
2246	 5752.81028770265 
2247	 5722.29259966698 
2248	 5672.09623106382 
2249	 5611.36786821131 
2250	 5560.25875662904 
2251	 5515.18957091045 
2252	 5479.28207986039 
2253	 5446.98255654928 
2254	 5409.47455961498 
2255	 5363.16668527754 
2256	 5300.40862067949 
2257	 5248.70259612115 
2258	 5195.30094662049 
2259	 5148.48605125111 
2260	 5109.44900012653 
2261	 5065.35110236695 
2262	 5021.12046589009 
2263	 4977.08184330885 
2264	 4931.32715475708 
2265	 4888.76658501738 
2266	 4848.85159274062 
2267	 4809.20112984964 
2268	 4773.72485686299 
2269	 4730.48249586749 
2270	 4681.07108017124 
2271	 4640.86252064848 
2272	 4597.33390448075 
2273	 4552.36042757598 
2274	 4525.05221847636 
2275	 4490.05635475536 
2276	 4452.58219987065 
2277	 4429.18523867395 
2278	 4390.97390627514 
2279	 4357.37737212264 
2280	 4334.80359511407 
2281	 4296.87219112524 
2282	 4272.68245970061 
2283	 4248.94513906172 
2284	 4215.01605109808 
2285	 4198.56388336609 
2286	 4179.82534057067 
2287	 4154.09364314582 
2288	 4123.93312494105 
2289	 4089.74857614173 
2290	 4054.3451854926 
2291	 4006.6717852807 
2292	 3971.44971448404 
2293	 3945.15017558055 
2294	 3913.60210591364 
2295	 3886.33647715682 
2296	 3855.19275864046 
2297	 3816.38689881609 
2298	 3783.61671061529 
2299	 3759.78509152482 
2300	 3723.93587969114 
2301	 3682.47982097701 
2302	 3646.09925504122 
2303	 3598.72134189666 
2304	 3551.25391088117 
2305	 3526.98580493088 
2306	 3494.69874294102 
2307	 3460.49209918168 
2308	 3429.79970480444 
2309	 3394.83307767637 
2310	 3359.30576108983 
2311	 3323.94837208722 
2312	 3296.18814828489 
2313	 3271.68423320209 
2314	 3243.10646361581 
2315	 3215.13734988668 
2316	 3192.79659658498 
2317	 3162.20085494816 
2318	 3127.98611613216 
2319	 3105.17154559308 
2320	 3077.91535811429 
2321	 3043.5072159526 
2322	 3022.63248535689 
2323	 3002.22037908084 
2324	 2969.73759488486 
2325	 2943.17025054502 
2326	 2910.93252740517 
2327	 2879.26023029452 
2328	 2857.08370035875 
2329	 2828.29966793072 
2330	 2799.30393968598 
2331	 2769.63348148705 
2332	 2733.37063965842 
2333	 2699.95293554324 
2334	 2671.03336223763 
2335	 2637.38931598463 
2336	 2598.13037715617 
2337	 2572.52555191644 
2338	 2547.135182563 
2339	 2528.42461764727 
2340	 2524.99291241365 
2341	 2507.69697776584 
2342	 2489.39801718164 
2343	 2472.0650403527 
2344	 2453.16447163515 
2345	 2426.15243030467 
2346	 2391.94353565592 
2347	 2360.09386418829 
2348	 2322.13646139414 
2349	 2287.92587090478 
2350	 2263.65693688033 
2351	 2248.49912521026 
2352	 2229.89377667738 
2353	 2219.73823802948 
2354	 2205.29065648359 
2355	 2185.91330035039 
2356	 2176.24675320088 
2357	 2164.03943303508 
2358	 2142.24631865925 
2359	 2117.64605222564 
2360	 2096.38918638925 
2361	 2071.2890064289 
2362	 2050.19712470335 
2363	 2030.38834112327 
2364	 1997.12100067571 
2365	 1958.60299061013 
2366	 1926.45884073474 
2367	 1910.64104528283 
2368	 1896.4593607271 
2369	 1870.14140930889 
2370	 1848.87757571901 
2371	 1824.54350656729 
2372	 1803.29445899551 
2373	 1799.04010259094 
2374	 1789.74162662434 
2375	 1774.45554992455 
2376	 1756.82282671165 
2377	 1730.28170240408 
2378	 1704.73143369543 
2379	 1682.08481801553 
2380	 1654.20564058495 
2381	 1631.44558038651 
2382	 1618.21012324386 
2383	 1601.53094369597 
2384	 1575.40039422868 
2385	 1561.448333967 
2386	 1543.74366931526 
2387	 1515.86825298179 
2388	 1511.82115957928 
2389	 1499.38652252837 
2390	 1480.79797253401 
2391	 1474.0132636664 
2392	 1455.91088601331 
2393	 1438.84189406862 
2394	 1422.20193516856 
2395	 1397.84984733837 
2396	 1377.5664401816 
2397	 1357.3207795151 
2398	 1334.53989527342 
2399	 1320.97532154601 
2400	 1311.49379722246 
2401	 1298.80448516714 
2402	 1284.22775840255 
2403	 1261.6892002523 
2404	 1236.02541756229 
2405	 1208.95945680548 
2406	 1185.85720300093 
2407	 1170.03131199734 
2408	 1147.6714304469 
2409	 1128.02450838723 
2410	 1125.8798404482 
2411	 1120.56410049643 
2412	 1107.73814479171 
2413	 1104.91179898102 
2414	 1096.76304345495 
2415	 1082.19312701987 
2416	 1078.12217890493 
2417	 1070.37862106103 
2418	 1047.75293882296 
2419	 1023.19382298246 
2420	 995.909389579705 
2421	 967.260219641552 
2422	 943.38325645692 
2423	 928.491491734518 
2424	 916.51599531004 
2425	 901.081235257859 
2426	 897.630571705578 
2427	 889.24022558982 
2428	 875.182912020985 
2429	 876.451335079303 
2430	 881.69236368152 
2431	 870.353565529286 
2432	 853.337086484298 
2433	 841.840148908451 
2434	 812.881325026496 
2435	 796.242867315845 
2436	 799.921977397342 
2437	 789.780536871266 
2438	 784.896583324067 
2439	 781.820245440372 
2440	 761.775664456569 
2441	 744.692795744889 
2442	 732.644007190602 
2443	 715.345348606472 
2444	 711.297300285131 
2445	 716.062727688962 
2446	 716.973264453974 
2447	 714.41157313891 
2448	 704.362030829205 
2449	 697.252796214584 
2450	 679.499368459948 
2451	 657.329050431709 
2452	 651.355685253826 
2453	 633.583495263879 
2454	 617.180489364195 
2455	 619.984646221614 
2456	 606.136982723883 
2457	 586.895812917167 
2458	 573.349809524743 
2459	 555.119013322443 
2460	 553.056492243035 
2461	 549.526485750977 
2462	 537.327267531469 
2463	 529.778238396565 
2464	 514.868161409191 
2465	 503.14388598261 
2466	 497.842440174627 
2467	 494.299103942773 
2468	 487.571571094366 
2469	 473.533829571653 
2470	 465.198771293819 
2471	 456.123345836502 
2472	 448.136616691128 
2473	 452.193912697127 
2474	 453.57419556451 
2475	 445.811042534435 
2476	 432.988921391886 
2477	 419.204893684473 
2478	 408.139025605975 
2479	 406.693235247344 
2480	 418.210096483915 
2481	 418.416106184605 
2482	 413.667096248283 
2483	 410.065103095958 
2484	 392.391096245054 
2485	 385.961373604099 
2486	 385.643678239552 
2487	 383.892666353103 
2488	 387.89043880341 
2489	 377.094301212547 
2490	 359.953902949299 
2491	 354.527020291062 
2492	 351.737621791475 
2493	 347.211394115397 
2494	 351.093369727093 
2495	 346.635485978826 
2496	 330.238147621403 
2497	 326.420911135201 
2498	 327.56921354994 
2499	 322.41250582886 
2500	 314.911050642252 
