Wavelength	spectrum00012.asd
350	 18.1906203662972 
351	 16.9038861715675 
352	 16.3993972216503 
353	 17.7104974688157 
354	 20.1905452456195 
355	 20.7569661893972 
356	 21.8573460813107 
357	 23.6073809938487 
358	 24.1602558356388 
359	 25.324188684583 
360	 26.9217097537025 
361	 28.3931357135076 
362	 28.904929099535 
363	 30.8396723888979 
364	 33.2936221979892 
365	 34.4785086520391 
366	 36.780805709422 
367	 39.3791995572967 
368	 41.3164974992539 
369	 41.8129530085715 
370	 43.820509715671 
371	 47.0532279860013 
372	 50.2686112837644 
373	 52.0411324257212 
374	 54.3909929499499 
375	 56.6957522714318 
376	 57.0381627539606 
377	 59.6715586332114 
378	 62.5286064374647 
379	 64.5786478955039 
380	 68.6371168519508 
381	 69.9990954981577 
382	 71.5373350877432 
383	 76.9570102866861 
384	 79.0130894314121 
385	 80.0184334251314 
386	 82.2905344014816 
387	 87.3913234218822 
388	 90.8186892592419 
389	 93.1649422818382 
390	 95.7932017704198 
391	 98.5276364651352 
392	 102.23487305081 
393	 105.824376647647 
394	 107.496986872398 
395	 110.660860204764 
396	 114.234238668284 
397	 117.731706242491 
398	 122.848823584015 
399	 127.00976817652 
400	 130.75617047544 
401	 135.445511357275 
402	 140.496958474425 
403	 146.261505861094 
404	 152.070568557448 
405	 156.268856146921 
406	 161.257703204935 
407	 166.393842145914 
408	 170.886435275247 
409	 175.247049874363 
410	 182.521596856613 
411	 191.474334509689 
412	 198.440511592696 
413	 204.491906004946 
414	 212.101659039757 
415	 221.499384707114 
416	 228.1915336739 
417	 237.01144265099 
418	 246.716954484085 
419	 254.644198661034 
420	 263.148487334484 
421	 273.200057883953 
422	 284.40874202768 
423	 294.970495807481 
424	 305.819394129145 
425	 317.203066633767 
426	 329.015184543415 
427	 340.595555916133 
428	 351.073542843488 
429	 362.161367392084 
430	 376.79058413576 
431	 388.779106333423 
432	 400.324600388855 
433	 413.129226336508 
434	 424.648448733499 
435	 438.136419866454 
436	 452.06000247859 
437	 463.633875445953 
438	 476.602851960237 
439	 489.517356562104 
440	 502.137504088098 
441	 516.540376969528 
442	 528.978468214217 
443	 540.171428839164 
444	 551.946532511515 
445	 564.974800236798 
446	 576.296515904634 
447	 586.623037177432 
448	 599.683053347615 
449	 609.039687534831 
450	 617.685984896107 
451	 628.289992665601 
452	 637.511436466211 
453	 645.975114005505 
454	 653.587895882956 
455	 660.106297011237 
456	 667.010985087612 
457	 673.639183316783 
458	 679.58325553817 
459	 685.426449088099 
460	 690.678059372849 
461	 695.188232709354 
462	 699.31054106025 
463	 705.449310744373 
464	 711.194973797684 
465	 715.249750211505 
466	 718.031212465896 
467	 723.559919180715 
468	 729.488968832533 
469	 733.154685210941 
470	 737.346992078278 
471	 741.988198854789 
472	 747.301825372781 
473	 753.621530932217 
474	 759.192425712408 
475	 763.803706441469 
476	 768.222983647571 
477	 774.889097625299 
478	 782.154577952438 
479	 789.108930932051 
480	 795.3013249506 
481	 801.286207718694 
482	 807.030889613379 
483	 812.780438175892 
484	 819.329895354238 
485	 826.952344529117 
486	 834.807175068982 
487	 841.760186321908 
488	 847.679256326855 
489	 853.1726874616 
490	 859.175628887093 
491	 866.903548269113 
492	 877.49841626779 
493	 887.350248409612 
494	 894.172441875446 
495	 904.916528615491 
496	 915.759346857151 
497	 926.115574272942 
498	 938.027691628107 
499	 951.97605983859 
500	 965.184857866665 
501	 976.971235704463 
502	 993.608391621515 
503	 1009.46656602646 
504	 1024.75178357472 
505	 1042.39281603176 
506	 1061.46145618085 
507	 1080.63707066822 
508	 1100.39398659648 
509	 1124.70610186273 
510	 1146.99408079001 
511	 1169.88465039716 
512	 1197.78966380145 
513	 1225.33217915998 
514	 1253.94973274911 
515	 1284.88863286169 
516	 1318.66721281024 
517	 1353.60571011073 
518	 1391.1095354561 
519	 1431.89921574504 
520	 1470.83736004249 
521	 1513.4804515306 
522	 1559.06483668275 
523	 1601.9502973752 
524	 1648.08040121303 
525	 1695.00228617219 
526	 1740.9101760893 
527	 1789.86705573941 
528	 1838.65334614557 
529	 1885.13747026194 
530	 1928.52303814627 
531	 1974.4251431343 
532	 2021.37839108185 
533	 2067.94321874447 
534	 2114.60785383679 
535	 2158.55405198107 
536	 2201.40277140925 
537	 2245.22831050877 
538	 2283.72223650501 
539	 2322.85093327953 
540	 2363.71126041975 
541	 2400.37695820022 
542	 2438.83866462364 
543	 2477.85564529725 
544	 2515.80310759695 
545	 2557.93404639417 
546	 2597.29854824759 
547	 2633.65260197102 
548	 2672.48731278059 
549	 2710.15085576928 
550	 2746.68881286251 
551	 2782.70439786717 
552	 2818.67111059134 
553	 2852.69565772079 
554	 2883.9955639598 
555	 2912.45799847258 
556	 2937.62144816959 
557	 2960.22525367885 
558	 2980.72454591838 
559	 2998.83722159852 
560	 3013.92295117474 
561	 3025.03320242498 
562	 3031.44196185971 
563	 3033.91199977475 
564	 3035.10770102829 
565	 3034.77699713498 
566	 3028.82187789121 
567	 3022.33920221956 
568	 3014.43576642906 
569	 3003.54175159662 
570	 2991.45039771516 
571	 2983.40255988982 
572	 2980.00971691636 
573	 2977.86946773476 
574	 2979.54085274024 
575	 2982.5541270405 
576	 2985.91291009576 
577	 2995.24528721358 
578	 3006.1221916817 
579	 3018.92103342188 
580	 3036.22884216476 
581	 3055.31243271039 
582	 3072.77778128653 
583	 3087.48806138805 
584	 3102.9567813858 
585	 3111.26144974871 
586	 3114.62764460723 
587	 3118.59131428011 
588	 3122.75037282645 
589	 3126.18970941253 
590	 3128.45478105416 
591	 3129.7714413934 
592	 3129.8402278286 
593	 3127.7374005106 
594	 3123.09102077072 
595	 3117.81682903708 
596	 3112.5113007403 
597	 3108.4294261612 
598	 3107.20124265433 
599	 3107.98650080014 
600	 3109.34278597852 
601	 3109.87974289908 
602	 3108.22231282129 
603	 3108.72829328682 
604	 3109.37653244291 
605	 3105.65664753105 
606	 3101.93513749089 
607	 3099.03143118993 
608	 3096.04596810453 
609	 3089.71475569589 
610	 3085.59448651207 
611	 3082.46430956488 
612	 3077.4256962795 
613	 3071.33821377132 
614	 3067.43057848395 
615	 3065.04685738494 
616	 3059.54412321626 
617	 3058.94589050913 
618	 3059.49747625384 
619	 3058.01830501423 
620	 3062.16086348368 
621	 3067.20159187183 
622	 3072.16812428054 
623	 3078.51489972702 
624	 3085.16753178135 
625	 3094.0468004111 
626	 3105.47101946394 
627	 3115.76608175136 
628	 3125.74950599298 
629	 3134.90522166018 
630	 3142.67235562164 
631	 3150.8507027396 
632	 3157.84698770455 
633	 3162.96932515251 
634	 3167.00127039754 
635	 3167.74315719621 
636	 3165.38987281137 
637	 3161.15950051439 
638	 3157.14714483083 
639	 3152.60078927215 
640	 3146.40907551615 
641	 3137.54683868671 
642	 3129.7738320612 
643	 3122.4308021585 
644	 3115.13731349819 
645	 3110.31007254176 
646	 3104.47464912416 
647	 3098.64823665372 
648	 3095.45862253336 
649	 3092.99438411645 
650	 3093.48595334458 
651	 3097.15320191164 
652	 3101.04912604198 
653	 3105.33226016355 
654	 3110.03081266141 
655	 3115.53290703264 
656	 3123.45552461915 
657	 3131.42313889029 
658	 3138.9959028925 
659	 3147.2640705253 
660	 3153.42204619773 
661	 3161.38157665522 
662	 3173.47540413992 
663	 3185.90707800075 
664	 3197.38222300691 
665	 3209.50274149159 
666	 3224.87881174452 
667	 3241.6930943013 
668	 3259.99477862078 
669	 3279.46194816324 
670	 3299.06709034506 
671	 3320.99037060421 
672	 3345.02642576709 
673	 3370.63030238817 
674	 3399.10630103765 
675	 3426.54584773894 
676	 3453.74979356219 
677	 3484.88359717445 
678	 3517.12593670746 
679	 3550.77204251558 
680	 3586.32403747864 
681	 3623.69067431167 
682	 3663.14888460048 
683	 3704.71563487829 
684	 3748.87588661269 
685	 3799.35075151879 
686	 3852.78664767705 
687	 3909.2579885254 
688	 3973.29585511743 
689	 4042.8252528317 
690	 4119.36606837145 
691	 4205.71201970092 
692	 4305.87457197233 
693	 4417.89744114876 
694	 4543.61622135144 
695	 4686.64652089525 
696	 4843.68104717383 
697	 5019.50932131682 
698	 5216.02603588077 
699	 5428.63073684127 
700	 5663.27169200394 
701	 5914.7437717889 
702	 6176.2517092704 
703	 6451.50662411062 
704	 6738.13407506563 
705	 7033.16054121868 
706	 7333.51951686298 
707	 7639.78818654862 
708	 7954.74473119698 
709	 8279.05459246873 
710	 8607.64808699018 
711	 8942.69021958093 
712	 9283.43699929524 
713	 9628.40155636225 
714	 9978.5497436124 
715	 10334.0662841409 
716	 10694.7637522893 
717	 11060.0310926293 
718	 11425.6454745127 
719	 11795.7353477751 
720	 12172.8235407915 
721	 12549.7705107056 
722	 12924.6151106863 
723	 13296.206548888 
724	 13664.4049257881 
725	 14031.0579933572 
726	 14394.1925765439 
727	 14753.6228706369 
728	 15112.2070464739 
729	 15461.6693301682 
730	 15804.3758064773 
731	 16143.4042267259 
732	 16473.2956962145 
733	 16798.9701181822 
734	 17119.2760577032 
735	 17429.4606546283 
736	 17730.6786530214 
737	 18025.586055182 
738	 18314.8816369803 
739	 18595.6727442672 
740	 18874.6422056124 
741	 19148.0019874522 
742	 19411.0939662395 
743	 19670.2216891722 
744	 19912.0491078715 
745	 20135.8837849772 
746	 20352.1696360715 
747	 20581.9203199563 
748	 20808.1425251592 
749	 21022.8722224822 
750	 21243.0992944933 
751	 21454.1938627746 
752	 21661.8896214589 
753	 21872.6337558828 
754	 22070.204404804 
755	 22263.46743858 
756	 22457.8687022275 
757	 22654.775041041 
758	 22847.0083945689 
759	 23027.5314256361 
760	 23198.1060429768 
761	 23374.2469062223 
762	 23552.9359960206 
763	 23732.1499476716 
764	 23908.3279365617 
765	 24073.6968395729 
766	 24231.4026459606 
767	 24383.1544657374 
768	 24530.1366220343 
769	 24679.5484444927 
770	 24821.0630358657 
771	 24957.9952456601 
772	 25117.6356494451 
773	 25267.4881583742 
774	 25397.7948369236 
775	 25508.2646870394 
776	 25605.9295004126 
777	 25693.3896191549 
778	 25772.6590383687 
779	 25846.1788420181 
780	 25924.0942949586 
781	 25995.2973801833 
782	 26054.958889029 
783	 26109.250551885 
784	 26161.9210155639 
785	 26211.6547535212 
786	 26255.7402725734 
787	 26291.8642134789 
788	 26321.861012126 
789	 26346.4905302916 
790	 26365.8737790642 
791	 26379.2540315745 
792	 26387.4820436084 
793	 26392.9131528843 
794	 26398.6428819824 
795	 26396.9206245295 
796	 26389.8054266872 
797	 26379.3551695115 
798	 26363.9001073576 
799	 26341.2313755957 
800	 26311.3169467848 
801	 26275.3106695663 
802	 26236.2893399979 
803	 26182.2115697585 
804	 26119.3363964534 
805	 26065.1458859089 
806	 26010.7670917828 
807	 25952.6931281693 
808	 25891.769137059 
809	 25833.990414152 
810	 25761.0846754852 
811	 25684.4299255712 
812	 25614.1307936778 
813	 25536.2714227648 
814	 25448.7928615759 
815	 25350.640071886 
816	 25243.5872417031 
817	 25137.7754752991 
818	 25029.2323843253 
819	 24916.451157712 
820	 24800.9638746466 
821	 24683.909816286 
822	 24563.3864314138 
823	 24438.5737502545 
824	 24311.2225193194 
825	 24180.9199472396 
826	 24048.3981075966 
827	 23913.7906650434 
828	 23773.9305443157 
829	 23636.7380895856 
830	 23499.4225753695 
831	 23355.8054003593 
832	 23213.9170104837 
833	 23069.022492564 
834	 22919.1830880386 
835	 22766.4062687674 
836	 22617.7987450255 
837	 22473.7294848615 
838	 22332.935068661 
839	 22193.7458166257 
840	 22054.0074552796 
841	 21916.2799298465 
842	 21781.4457246885 
843	 21640.98305368 
844	 21505.9675819898 
845	 21374.1980141671 
846	 21239.0885352623 
847	 21103.7217397367 
848	 20973.8540536351 
849	 20847.6154504643 
850	 20718.3617220422 
851	 20595.4191904958 
852	 20470.2798974707 
853	 20341.4612355707 
854	 20218.9094536944 
855	 20091.6061950569 
856	 19961.3508037174 
857	 19832.7039455968 
858	 19709.7781778546 
859	 19589.7624176277 
860	 19473.9723520726 
861	 19362.0436318268 
862	 19244.5770158068 
863	 19115.9529625819 
864	 18982.9843633015 
865	 18856.2948145387 
866	 18725.5719884252 
867	 18593.4542205832 
868	 18461.9975369841 
869	 18331.5682231073 
870	 18198.6760723486 
871	 18065.6677782886 
872	 17932.8783366121 
873	 17796.9855964345 
874	 17660.0086253009 
875	 17521.9636520586 
876	 17382.8435679539 
877	 17243.2081707002 
878	 17106.2504926372 
879	 16971.3992753063 
880	 16835.4187140201 
881	 16690.7022010871 
882	 16547.6397705362 
883	 16408.1867234431 
884	 16269.6572725001 
885	 16128.9678905151 
886	 15986.0905829357 
887	 15841.9724741106 
888	 15698.1088772294 
889	 15555.2457183094 
890	 15413.8613882091 
891	 15272.6695177126 
892	 15129.0097237113 
893	 14983.7162760287 
894	 14839.1537298719 
895	 14696.5192407575 
896	 14554.9734050557 
897	 14414.399256249 
898	 14274.7301810899 
899	 14135.8053700949 
900	 13997.1378577859 
901	 13861.6310951919 
902	 13725.4443626579 
903	 13585.0128312589 
904	 13441.9290753215 
905	 13308.8238374061 
906	 13179.1806394643 
907	 13043.415262962 
908	 12910.9085048946 
909	 12777.0604754678 
910	 12643.9134910378 
911	 12515.2613714147 
912	 12385.5820826488 
913	 12257.4299845152 
914	 12129.571066462 
915	 11999.3717820846 
916	 11873.7386981962 
917	 11750.5389809596 
918	 11627.5459371825 
919	 11503.4270817747 
920	 11378.0310599888 
921	 11255.4360830723 
922	 11136.0646969073 
923	 11015.9580432585 
924	 10895.1355965166 
925	 10774.7285450652 
926	 10654.6590481545 
927	 10533.0915312195 
928	 10413.094713655 
929	 10294.0185945831 
930	 10174.1811870572 
931	 10051.6860318003 
932	 9933.71862174043 
933	 9816.16213138359 
934	 9696.00201294404 
935	 9577.72538422448 
936	 9465.20898834042 
937	 9354.51343011737 
938	 9241.91341468087 
939	 9129.84589564177 
940	 9018.6625950064 
941	 8906.70628287717 
942	 8793.60073503354 
943	 8684.67258857556 
944	 8572.66729038467 
945	 8459.41052781 
946	 8348.17423445747 
947	 8236.05828996952 
948	 8126.24096504842 
949	 8016.39564596078 
950	 7904.37272306234 
951	 7796.46534687673 
952	 7686.4590212769 
953	 7577.61361830086 
954	 7474.23898851308 
955	 7368.63999766305 
956	 7263.79591498088 
957	 7159.03329877034 
958	 7053.22880926825 
959	 6950.2553076536 
960	 6849.7426976335 
961	 6749.37550002523 
962	 6647.62864277767 
963	 6550.06163778063 
964	 6452.37567330439 
965	 6354.84471084843 
966	 6259.48599053565 
967	 6164.61190247402 
968	 6069.31195538912 
969	 5974.85645619717 
970	 5882.9700624828 
971	 5792.34187815723 
972	 5702.03548797648 
973	 5611.89712355503 
974	 5522.65985088196 
975	 5436.80947195409 
976	 5350.3961669864 
977	 5264.1491548805 
978	 5180.09039817207 
979	 5094.62896382782 
980	 5010.44746335452 
981	 4927.83213219724 
982	 4846.48867085983 
983	 4769.43302253176 
984	 4690.02275400878 
985	 4610.70093304776 
986	 4535.47390205199 
987	 4457.61548629726 
988	 4381.50085506087 
989	 4306.81249112191 
990	 4231.98921862699 
991	 4158.17369189486 
992	 4087.43231457209 
993	 4017.11525852978 
994	 3944.8126209246 
995	 3874.14169517698 
996	 3806.08681326883 
997	 3738.83445696186 
998	 3671.09017703289 
999	 3605.63797631387 
1000	 3540.07795922332 
1001	 7753.39874744913 
1002	 7791.55099839543 
1003	 7834.51976063347 
1004	 7883.52478780489 
1005	 7932.4634722982 
1006	 7974.00183901456 
1007	 8019.21514865081 
1008	 8075.32230700749 
1009	 8128.39229654515 
1010	 8189.25310917432 
1011	 8259.41743794886 
1012	 8327.92176989097 
1013	 8396.08378612312 
1014	 8466.39842809729 
1015	 8537.88740876654 
1016	 8614.22720553887 
1017	 8690.55050055971 
1018	 8774.83249206555 
1019	 8862.97385040086 
1020	 8954.14620594432 
1021	 9042.95028863882 
1022	 9128.49087207964 
1023	 9215.72118441435 
1024	 9296.51769353255 
1025	 9380.68536087466 
1026	 9469.61111318332 
1027	 9549.05721686377 
1028	 9623.91695892098 
1029	 9701.82081064769 
1030	 9773.56948829348 
1031	 9840.08878106981 
1032	 9903.31464730351 
1033	 9963.75131407667 
1034	 10017.9888551475 
1035	 10061.3995301396 
1036	 10106.0606559996 
1037	 10148.3512461858 
1038	 10181.9897628519 
1039	 10218.7764061702 
1040	 10245.4047349971 
1041	 10265.8528959209 
1042	 10276.0387687238 
1043	 10289.6735563911 
1044	 10297.5644584594 
1045	 10304.7073462254 
1046	 10315.5616763453 
1047	 10320.8789058056 
1048	 10320.055024052 
1049	 10328.3177065336 
1050	 10338.3470609991 
1051	 10340.1659822874 
1052	 10345.7362241524 
1053	 10352.5537665218 
1054	 10355.9461792199 
1055	 10361.384331672 
1056	 10377.7154937658 
1057	 10394.8196690459 
1058	 10413.9658747567 
1059	 10435.1862378837 
1060	 10456.8546042992 
1061	 10480.6303127228 
1062	 10506.7397788947 
1063	 10545.1262227795 
1064	 10593.1474855113 
1065	 10641.5361114863 
1066	 10696.3589804224 
1067	 10755.1737779424 
1068	 10814.8820127241 
1069	 10874.2505592651 
1070	 10952.0695811903 
1071	 11042.266699688 
1072	 11135.0122018206 
1073	 11234.7565764827 
1074	 11336.1304823344 
1075	 11446.2446396915 
1076	 11565.636292667 
1077	 11691.4412487167 
1078	 11829.5583561884 
1079	 11962.2778472222 
1080	 12102.8727314629 
1081	 12246.0722591957 
1082	 12401.7673329873 
1083	 12558.6424770059 
1084	 12727.1091963405 
1085	 12893.6465262186 
1086	 13052.2466171243 
1087	 13216.1165688785 
1088	 13374.0788463705 
1089	 13531.078415826 
1090	 13692.094498598 
1091	 13848.2876272246 
1092	 14007.160072468 
1093	 14163.1595783626 
1094	 14319.0999484153 
1095	 14473.1576808252 
1096	 14627.875004557 
1097	 14775.1198286101 
1098	 14916.5872743959 
1099	 15052.8177600393 
1100	 15186.0184894575 
1101	 15314.0773000765 
1102	 15440.2066025838 
1103	 15565.5587641014 
1104	 15685.5614273395 
1105	 15807.0991530562 
1106	 15926.7297436557 
1107	 16052.0588027581 
1108	 16163.9770630669 
1109	 16265.8599549565 
1110	 16369.4311003392 
1111	 16467.2627503164 
1112	 16563.0478741133 
1113	 16662.3987064224 
1114	 16759.4486737824 
1115	 16846.796562695 
1116	 16928.4470722153 
1117	 17014.5352360526 
1118	 17099.4688267627 
1119	 17178.2413717834 
1120	 17252.9802682629 
1121	 17331.4215112911 
1122	 17402.9400832063 
1123	 17481.1488766994 
1124	 17565.8927578467 
1125	 17649.2395984225 
1126	 17736.1405548313 
1127	 17820.1182777605 
1128	 17893.6763549158 
1129	 17969.3204043651 
1130	 18040.9132531739 
1131	 18103.7609088213 
1132	 18166.2510094991 
1133	 18226.1831060741 
1134	 18289.5046368062 
1135	 18347.1206990751 
1136	 18411.5693228325 
1137	 18488.6135908007 
1138	 18553.230067659 
1139	 18613.7669579808 
1140	 18671.6605371098 
1141	 18724.7737797701 
1142	 18774.3890599173 
1143	 18819.1147485414 
1144	 18871.1871063589 
1145	 18912.8457964325 
1146	 18949.783668418 
1147	 18995.9939976956 
1148	 19047.1465133837 
1149	 19091.9955255594 
1150	 19140.070002651 
1151	 19185.385074455 
1152	 19219.1425528658 
1153	 19264.8709406141 
1154	 19319.2430773187 
1155	 19371.5483052687 
1156	 19428.9362859304 
1157	 19485.8717358659 
1158	 19533.1716546162 
1159	 19578.8924133831 
1160	 19621.8315422983 
1161	 19658.6810342272 
1162	 19696.4417421598 
1163	 19732.1833027268 
1164	 19768.1814163935 
1165	 19803.4020711159 
1166	 19838.6783584629 
1167	 19875.4392356296 
1168	 19909.3832202175 
1169	 19941.3580533743 
1170	 19970.9817008006 
1171	 19996.2077051407 
1172	 20024.8611718224 
1173	 20055.8781913777 
1174	 20081.8169227929 
1175	 20105.1879587351 
1176	 20128.6736668203 
1177	 20148.5734983196 
1178	 20159.2867198693 
1179	 20179.4982840295 
1180	 20205.905061321 
1181	 20225.3902691999 
1182	 20245.367070645 
1183	 20263.8369135144 
1184	 20274.6195151906 
1185	 20290.7708758225 
1186	 20311.2580077199 
1187	 20329.8498174429 
1188	 20347.6698772607 
1189	 20367.2459409954 
1190	 20388.8752194013 
1191	 20411.6380786725 
1192	 20434.0088194322 
1193	 20459.6396163938 
1194	 20482.119433582 
1195	 20498.9506950909 
1196	 20523.6282210542 
1197	 20550.7259475537 
1198	 20579.7448286563 
1199	 20613.7693557909 
1200	 20647.5345990068 
1201	 20684.4107158678 
1202	 20718.4769026548 
1203	 20752.8530540143 
1204	 20786.5033371153 
1205	 20818.8698125414 
1206	 20848.905367759 
1207	 20878.0918480682 
1208	 20903.9328670348 
1209	 20936.7119416871 
1210	 20969.6403844696 
1211	 21005.7241871091 
1212	 21049.9861511869 
1213	 21088.7088671377 
1214	 21124.5497050748 
1215	 21162.8367839 
1216	 21204.9039142231 
1217	 21241.014272077 
1218	 21272.7116337288 
1219	 21307.310469069 
1220	 21338.7685659219 
1221	 21371.8239344896 
1222	 21405.7353377365 
1223	 21445.3770019059 
1224	 21477.6068966312 
1225	 21507.5609318515 
1226	 21534.1528967019 
1227	 21555.98112651 
1228	 21579.9704257059 
1229	 21601.4427310063 
1230	 21623.9824469404 
1231	 21654.0130771646 
1232	 21671.5938328966 
1233	 21682.0372057972 
1234	 21691.9667151697 
1235	 21692.5714256693 
1236	 21695.4706181503 
1237	 21698.407781176 
1238	 21703.4559026102 
1239	 21703.9982686219 
1240	 21702.7209769834 
1241	 21699.4895509286 
1242	 21694.6282814222 
1243	 21687.0345356002 
1244	 21675.7100848008 
1245	 21665.704761537 
1246	 21654.3356530918 
1247	 21642.2135480877 
1248	 21628.8897254963 
1249	 21617.0701996551 
1250	 21605.1269963516 
1251	 21592.5601960716 
1252	 21582.6755715812 
1253	 21569.9167662327 
1254	 21555.4690236251 
1255	 21538.3785259594 
1256	 21522.0587854001 
1257	 21502.2922400154 
1258	 21489.5483034447 
1259	 21481.3972062584 
1260	 21468.3554077774 
1261	 21460.0453933586 
1262	 21444.1266407759 
1263	 21420.5956053999 
1264	 21399.1967070178 
1265	 21379.7931388047 
1266	 21353.1211994784 
1267	 21326.439921446 
1268	 21291.2351929646 
1269	 21247.8471523243 
1270	 21200.7644548043 
1271	 21147.9331004543 
1272	 21090.173773163 
1273	 21030.3812610472 
1274	 20966.8451889228 
1275	 20900.2442960901 
1276	 20825.4325517773 
1277	 20760.9842011053 
1278	 20699.7138682522 
1279	 20633.9772841505 
1280	 20573.6651876043 
1281	 20507.5113789026 
1282	 20431.6413669026 
1283	 20361.913875951 
1284	 20291.1153211013 
1285	 20226.8259623478 
1286	 20167.4561665893 
1287	 20107.6523571713 
1288	 20047.1477481189 
1289	 19995.47307424 
1290	 19944.4930382112 
1291	 19901.6478134565 
1292	 19865.2027714654 
1293	 19837.5788292957 
1294	 19815.982063725 
1295	 19804.3579029945 
1296	 19787.170959154 
1297	 19775.7506714126 
1298	 19763.2141165566 
1299	 19741.2977659536 
1300	 19733.7387491625 
1301	 19735.0616913404 
1302	 19738.8234760496 
1303	 19748.7446670698 
1304	 19762.1411443101 
1305	 19781.0977793252 
1306	 19801.0647447566 
1307	 19824.0438510506 
1308	 19851.6770423291 
1309	 19878.4758450105 
1310	 19903.186458733 
1311	 19930.5628762094 
1312	 19959.1555997321 
1313	 19987.8008479085 
1314	 20018.6537009642 
1315	 20047.0342827489 
1316	 20074.7429274416 
1317	 20102.006870059 
1318	 20127.5152888001 
1319	 20154.0939703554 
1320	 20181.5323142598 
1321	 20208.0579556011 
1322	 20237.4991547815 
1323	 20260.8843029696 
1324	 20281.7302478915 
1325	 20299.9627472553 
1326	 20312.8451667404 
1327	 20324.2090706597 
1328	 20340.9721591902 
1329	 20353.5568053055 
1330	 20363.7511823642 
1331	 20373.6694522958 
1332	 20381.6148915261 
1333	 20384.1235484399 
1334	 20389.9064084253 
1335	 20399.0014456457 
1336	 20402.2080500461 
1337	 20403.9777695234 
1338	 20402.4779838439 
1339	 20399.2144979345 
1340	 20390.603123389 
1341	 20379.8602997673 
1342	 20362.648660039 
1343	 20337.4888757729 
1344	 20311.2560616988 
1345	 20286.4227338713 
1346	 20250.4788613668 
1347	 20211.0008322463 
1348	 20162.5042709446 
1349	 20102.9624755176 
1350	 20029.233342463 
1351	 19946.4022661629 
1352	 19850.1501752999 
1353	 19753.331525362 
1354	 19640.7771527959 
1355	 19541.1833789276 
1356	 19443.7123599989 
1357	 19345.8735005098 
1358	 19249.856350406 
1359	 19156.0199467559 
1360	 19040.9880016164 
1361	 18970.503478807 
1362	 18914.4223940415 
1363	 18884.0645880305 
1364	 18902.4569359135 
1365	 18909.1235009631 
1366	 18928.8376182309 
1367	 18946.5970511986 
1368	 18963.6405579556 
1369	 18983.6112357226 
1370	 19010.0667385739 
1371	 19043.585405926 
1372	 19065.7837462297 
1373	 19106.5734625347 
1374	 19088.2566426662 
1375	 19062.4749746001 
1376	 18969.2675369112 
1377	 18819.0173295047 
1378	 18650.2929167863 
1379	 18405.5798518306 
1380	 18212.3534386727 
1381	 17981.7796874762 
1382	 17829.2411646666 
1383	 17731.4599968439 
1384	 17638.0083122877 
1385	 17618.3745849005 
1386	 17544.4799241779 
1387	 17474.6447919006 
1388	 17364.9679767724 
1389	 17227.9864775096 
1390	 17054.7609089811 
1391	 16862.1181909591 
1392	 16649.7196860005 
1393	 16430.3632062176 
1394	 16216.2053247054 
1395	 16020.6910348895 
1396	 15833.1373687867 
1397	 15656.5485461446 
1398	 15497.7189602381 
1399	 15336.5487079076 
1400	 15181.3522014066 
1401	 15027.841508208 
1402	 14875.4655152816 
1403	 14732.2195418929 
1404	 14592.0129607202 
1405	 14460.8070414791 
1406	 14335.9757265288 
1407	 14223.1800487818 
1408	 14119.7077640357 
1409	 14023.7958829598 
1410	 13943.1708784032 
1411	 13862.3443765191 
1412	 13786.5004140614 
1413	 13713.3119172767 
1414	 13645.6199337232 
1415	 13576.208810244 
1416	 13510.3587185673 
1417	 13454.8334767138 
1418	 13399.1022646211 
1419	 13342.469539543 
1420	 13288.6658886977 
1421	 13235.6384032522 
1422	 13186.1433084105 
1423	 13137.4245518974 
1424	 13096.4446677686 
1425	 13059.7341563057 
1426	 13026.0779354775 
1427	 12999.6851306164 
1428	 12972.9379600064 
1429	 12947.6629439353 
1430	 12925.481164649 
1431	 12905.4036948669 
1432	 12887.6649914331 
1433	 12869.8654450491 
1434	 12860.2459270513 
1435	 12858.3202678941 
1436	 12855.4243761949 
1437	 12859.4546264974 
1438	 12860.4164879183 
1439	 12859.8778969448 
1440	 12859.0466557005 
1441	 12856.2521567913 
1442	 12856.0095068017 
1443	 12856.4696391081 
1444	 12858.8542252262 
1445	 12865.6880318334 
1446	 12878.9080806592 
1447	 12886.3911995738 
1448	 12893.6676748198 
1449	 12903.4708599535 
1450	 12910.1334458703 
1451	 12924.223427211 
1452	 12945.4422021654 
1453	 12962.2443623359 
1454	 12982.7409422126 
1455	 12996.6670334101 
1456	 13006.7462248085 
1457	 13016.9720092769 
1458	 13023.2022322113 
1459	 13031.7074736618 
1460	 13040.363967453 
1461	 13049.0427964152 
1462	 13057.7198971352 
1463	 13066.7799340627 
1464	 13075.3512062909 
1465	 13085.5045922467 
1466	 13096.9315425324 
1467	 13108.3906868632 
1468	 13119.5538640401 
1469	 13132.3302910994 
1470	 13148.6155395283 
1471	 13169.4716287501 
1472	 13193.2156563242 
1473	 13225.5680756594 
1474	 13249.8647807041 
1475	 13272.747648169 
1476	 13296.4035770281 
1477	 13316.2244308217 
1478	 13339.4555257382 
1479	 13366.6936060027 
1480	 13390.6600791313 
1481	 13412.5461758268 
1482	 13438.3652702267 
1483	 13466.0808792469 
1484	 13491.283607593 
1485	 13517.7475952336 
1486	 13542.4165473406 
1487	 13565.1121802034 
1488	 13586.6805912807 
1489	 13606.7710325275 
1490	 13628.9321701701 
1491	 13650.7141286498 
1492	 13671.8054585199 
1493	 13693.3049407626 
1494	 13716.0041924422 
1495	 13740.1263121669 
1496	 13760.8075373133 
1497	 13780.944153292 
1498	 13801.4556375726 
1499	 13817.8908509 
1500	 13835.8475170859 
1501	 13857.3104264453 
1502	 13877.6093319946 
1503	 13889.3833160011 
1504	 13904.5692970081 
1505	 13922.7007875254 
1506	 13943.1425453083 
1507	 13965.22055355 
1508	 13994.0162264316 
1509	 14017.7647759244 
1510	 14040.1068041662 
1511	 14061.800702889 
1512	 14084.1800562313 
1513	 14103.8136350817 
1514	 14121.4328598848 
1515	 14137.0531845461 
1516	 14150.8276356062 
1517	 14164.0524853273 
1518	 14173.3524768124 
1519	 14186.3490491086 
1520	 14202.5587698504 
1521	 14214.3601910031 
1522	 14224.9998006992 
1523	 14236.1925305062 
1524	 14242.8064631469 
1525	 14253.5514999323 
1526	 14271.0962737615 
1527	 14281.7433670214 
1528	 14287.2155566661 
1529	 14297.6806337085 
1530	 14309.7287759006 
1531	 14317.6298076874 
1532	 14328.420558223 
1533	 14335.4439539329 
1534	 14330.970873998 
1535	 14335.2096002054 
1536	 14344.0024183419 
1537	 14352.907553988 
1538	 14370.3224221103 
1539	 14380.6961923226 
1540	 14384.7045871836 
1541	 14391.7269493372 
1542	 14399.2111229897 
1543	 14406.0093708411 
1544	 14414.3001078052 
1545	 14429.3656422284 
1546	 14432.53466124 
1547	 14428.657973722 
1548	 14429.6221592123 
1549	 14425.6985284583 
1550	 14428.7817136353 
1551	 14436.7460311861 
1552	 14444.3785757966 
1553	 14455.9813944103 
1554	 14461.6392303138 
1555	 14467.6379488553 
1556	 14469.3071156434 
1557	 14464.6833382203 
1558	 14463.1984381121 
1559	 14460.1787541964 
1560	 14459.7442942238 
1561	 14461.1582195236 
1562	 14461.2950935818 
1563	 14464.1736833214 
1564	 14462.2500205263 
1565	 14454.982777966 
1566	 14452.7410595498 
1567	 14449.8364967181 
1568	 14449.0300414752 
1569	 14454.9776204059 
1570	 14454.2955415494 
1571	 14450.2076280692 
1572	 14446.6744566609 
1573	 14439.3763205719 
1574	 14434.7827189269 
1575	 14434.0702470903 
1576	 14428.8356168667 
1577	 14420.6574117593 
1578	 14414.3765712237 
1579	 14404.4848873775 
1580	 14398.6097360106 
1581	 14400.0672250574 
1582	 14395.1894998259 
1583	 14389.2962155835 
1584	 14381.2063499857 
1585	 14366.0040515692 
1586	 14354.7296524408 
1587	 14343.310231448 
1588	 14334.3630650033 
1589	 14328.694985098 
1590	 14322.7489560545 
1591	 14319.6901615844 
1592	 14314.5360197036 
1593	 14308.7389999239 
1594	 14301.9769680174 
1595	 14294.6120186436 
1596	 14285.0943569486 
1597	 14275.1172098598 
1598	 14263.0424186001 
1599	 14255.2102450874 
1600	 14248.3995598763 
1601	 14239.9375176848 
1602	 14234.3390160559 
1603	 14224.1266825726 
1604	 14210.173429139 
1605	 14197.4373650117 
1606	 14184.1768174106 
1607	 14170.8102623687 
1608	 14157.6263366916 
1609	 14141.5879002297 
1610	 14123.5052293346 
1611	 14107.2906293398 
1612	 14090.1868769569 
1613	 14072.1459969652 
1614	 14056.3988325439 
1615	 14037.0069945286 
1616	 14014.5826732533 
1617	 13991.2219188492 
1618	 13965.3216201663 
1619	 13941.3622637046 
1620	 13915.5159767193 
1621	 13893.0367320127 
1622	 13873.3930834312 
1623	 13853.6445232786 
1624	 13837.2063642612 
1625	 13814.2738771964 
1626	 13791.1595480395 
1627	 13763.1879090015 
1628	 13728.5296601552 
1629	 13695.5316634379 
1630	 13658.5834725115 
1631	 13626.5591199517 
1632	 13596.6853896752 
1633	 13565.632800186 
1634	 13535.5186623874 
1635	 13507.2203185489 
1636	 13480.3532704171 
1637	 13450.0067414351 
1638	 13422.7784591732 
1639	 13390.4806081684 
1640	 13350.8400203478 
1641	 13315.1650337169 
1642	 13280.8266009777 
1643	 13243.6362626114 
1644	 13202.8671235609 
1645	 13167.6445342481 
1646	 13134.8983340448 
1647	 13099.6483543695 
1648	 13070.4924369127 
1649	 13032.9105749292 
1650	 12985.7138306637 
1651	 12944.4166912483 
1652	 12904.4698563002 
1653	 12861.2223866865 
1654	 12817.4491091573 
1655	 12774.5374033271 
1656	 12731.6449666803 
1657	 12685.0555928997 
1658	 12640.5798727013 
1659	 12591.1194674923 
1660	 12532.3092412294 
1661	 12477.3113182726 
1662	 12422.6955826128 
1663	 12367.6207198119 
1664	 12310.6448215366 
1665	 12258.7464366334 
1666	 12208.3545464764 
1667	 12159.4878365416 
1668	 12116.839934787 
1669	 12069.7663711707 
1670	 12020.2034458726 
1671	 11973.2499235265 
1672	 11925.2434115088 
1673	 11879.6103214669 
1674	 11836.7644830732 
1675	 11793.157323629 
1676	 11749.0237221742 
1677	 11708.310692271 
1678	 11670.0448536244 
1679	 11630.5138636902 
1680	 11593.6316837181 
1681	 11553.7253670916 
1682	 11514.2282986812 
1683	 11470.9386783987 
1684	 11424.4461540408 
1685	 11377.5335246493 
1686	 11323.7328663459 
1687	 11276.1697986793 
1688	 11232.4089435728 
1689	 11188.0902323642 
1690	 11147.5744538854 
1691	 11103.8914997805 
1692	 11059.6945262839 
1693	 11012.7632361837 
1694	 10961.9086283647 
1695	 10914.4430142674 
1696	 10866.0091465234 
1697	 10818.9885724538 
1698	 10774.4931074064 
1699	 10729.8305075295 
1700	 10683.5600564063 
1701	 10640.7138485604 
1702	 10600.9163305187 
1703	 10560.3823416047 
1704	 10520.4747399384 
1705	 10482.9481182723 
1706	 10449.3508884034 
1707	 10411.4608894948 
1708	 10374.224999087 
1709	 10333.962837713 
1710	 10288.6598013039 
1711	 10244.1387224156 
1712	 10197.9662771483 
1713	 10153.5998599144 
1714	 10106.6409592317 
1715	 10065.4376981018 
1716	 10030.6028584028 
1717	 9991.2877649512 
1718	 9954.54080184394 
1719	 9914.40238948128 
1720	 9869.65129962216 
1721	 9827.68666575142 
1722	 9786.76142204712 
1723	 9743.59681013595 
1724	 9696.64330571081 
1725	 9655.20310560361 
1726	 9616.3319288143 
1727	 9574.91924055218 
1728	 9537.63882552414 
1729	 9498.14327811181 
1730	 9451.60953669581 
1731	 9412.95561592541 
1732	 9379.58355894731 
1733	 9342.56000243644 
1734	 9307.34158127881 
1735	 9273.74262893027 
1736	 9237.37738178556 
1737	 9206.64914510438 
1738	 9184.53400246602 
1739	 9149.64156071306 
1740	 9113.5307954705 
1741	 9070.95630071105 
1742	 9015.96856623734 
1743	 8971.52662754736 
1744	 8926.35217749653 
1745	 8891.37011518382 
1746	 8855.00113250102 
1747	 8820.97127812761 
1748	 8786.6125200631 
1749	 8742.34544251826 
1750	 8704.30042902627 
1751	 8663.97650744437 
1752	 8624.62495004652 
1753	 8592.36504553675 
1754	 8551.26073013353 
1755	 8507.78255365962 
1756	 8464.26695701932 
1757	 8415.52385852946 
1758	 8371.8876382374 
1759	 8329.34681225475 
1760	 8284.05790618217 
1761	 8241.73448696999 
1762	 8200.65546583401 
1763	 8157.28228089205 
1764	 8118.32882262636 
1765	 8082.10215462008 
1766	 8041.01314672874 
1767	 8002.76264896981 
1768	 7965.20564294707 
1769	 7926.27169598432 
1770	 7886.82635641151 
1771	 7848.24845981405 
1772	 7810.97464019956 
1773	 7773.12828293538 
1774	 7737.64535984197 
1775	 7700.28556678605 
1776	 7661.37745327441 
1777	 7619.59364218964 
1778	 7579.81284562398 
1779	 7545.38519201585 
1780	 7509.82049328842 
1781	 7479.39557266402 
1782	 7442.49493096271 
1783	 7401.02281265246 
1784	 7361.68731484258 
1785	 7317.04022039619 
1786	 7280.69515499495 
1787	 7250.98298831715 
1788	 7216.45325403497 
1789	 7188.45842547541 
1790	 7148.64409679946 
1791	 7095.0078286956 
1792	 7054.87704155702 
1793	 7016.26471145491 
1794	 6976.28431462091 
1795	 6944.08741457284 
1796	 6904.86741930021 
1797	 6866.82963179873 
1798	 6826.52508914951 
1799	 6788.03606236258 
1800	 6744.69789281397 
1801	 11807.9085684364 
1802	 11951.6327761489 
1803	 12085.8437090714 
1804	 12229.5152242947 
1805	 12350.3532948001 
1806	 12453.9774223826 
1807	 12557.0525998537 
1808	 12649.0013426678 
1809	 12723.9127875159 
1810	 12799.7864558372 
1811	 12869.653866879 
1812	 12938.2029199706 
1813	 13005.4436427606 
1814	 13058.1555887859 
1815	 13108.9535088901 
1816	 13155.8800292704 
1817	 13191.5017093616 
1818	 13231.0079266252 
1819	 13284.9077551859 
1820	 13351.1341445535 
1821	 13417.5445023332 
1822	 13500.116561903 
1823	 13575.7522008276 
1824	 13624.7258662619 
1825	 13668.3559870202 
1826	 13704.5231733358 
1827	 13737.9610662595 
1828	 13789.9711450532 
1829	 13876.1784763717 
1830	 13924.7567648955 
1831	 13974.2246493775 
1832	 14003.4862098554 
1833	 13990.2892247036 
1834	 13961.709920223 
1835	 13923.8711590735 
1836	 13902.9104250047 
1837	 13908.4309001391 
1838	 13937.2043540242 
1839	 14003.7156220138 
1840	 14141.7005589137 
1841	 14225.2289491673 
1842	 14323.2946582839 
1843	 14419.340437308 
1844	 14422.9160583611 
1845	 14428.6470318938 
1846	 14457.0005776816 
1847	 14456.2569662441 
1848	 14485.1769898728 
1849	 14562.3960563949 
1850	 14593.8652514996 
1851	 14609.7123494563 
1852	 14632.9762805547 
1853	 14632.972191084 
1854	 14604.996590907 
1855	 14571.0611935823 
1856	 14541.7303305483 
1857	 14507.4867340971 
1858	 14476.3905482539 
1859	 14455.470215548 
1860	 14471.007290532 
1861	 14428.8242332445 
1862	 14384.4846974432 
1863	 14310.7471299341 
1864	 14155.5690534919 
1865	 13964.1293665099 
1866	 13713.3989641862 
1867	 13434.4645399712 
1868	 13153.7240046068 
1869	 12882.434027947 
1870	 12668.0178824546 
1871	 12484.7803252714 
1872	 12343.8789376141 
1873	 12259.6198494083 
1874	 12196.3714384738 
1875	 12150.783110918 
1876	 12113.2115622801 
1877	 12058.1128100983 
1878	 11983.7906293038 
1879	 11864.4255492018 
1880	 11717.4521140943 
1881	 11551.1213419493 
1882	 11347.963480411 
1883	 11133.4657121798 
1884	 10928.7081235185 
1885	 10713.2495491921 
1886	 10497.7059803218 
1887	 10286.9723663659 
1888	 10070.3869407172 
1889	 9867.97944040231 
1890	 9698.42232554184 
1891	 9534.4387492497 
1892	 9387.74882665944 
1893	 9254.80854817745 
1894	 9119.6672652927 
1895	 8956.22746878019 
1896	 8790.15095046146 
1897	 8628.70734677082 
1898	 8470.29904524072 
1899	 8328.73723932847 
1900	 8197.37369140886 
1901	 8071.29217765617 
1902	 7970.38796683156 
1903	 7884.31798218263 
1904	 7820.67337344256 
1905	 7779.1675084565 
1906	 7766.5400155355 
1907	 7748.48363143948 
1908	 7730.8397494802 
1909	 7713.93220089043 
1910	 7669.64990267806 
1911	 7638.08346938767 
1912	 7605.90691805411 
1913	 7572.45332600964 
1914	 7532.13148727461 
1915	 7518.29856323548 
1916	 7495.95408496159 
1917	 7464.69227721985 
1918	 7439.67878819615 
1919	 7404.04187155111 
1920	 7375.47792946565 
1921	 7366.12575165098 
1922	 7372.01881352142 
1923	 7397.15138220395 
1924	 7413.39173889245 
1925	 7434.00451102045 
1926	 7453.90615658806 
1927	 7473.0996493812 
1928	 7468.86101771878 
1929	 7471.6561669164 
1930	 7486.97634594937 
1931	 7490.34304622384 
1932	 7499.96195720459 
1933	 7524.1746027077 
1934	 7533.09804453542 
1935	 7542.4286434479 
1936	 7547.22269112336 
1937	 7564.97112002461 
1938	 7578.76568610564 
1939	 7591.84695336678 
1940	 7607.32482982798 
1941	 7630.45260336995 
1942	 7649.50892851526 
1943	 7673.08013254353 
1944	 7703.75828677705 
1945	 7722.35966744421 
1946	 7747.05647287007 
1947	 7776.93575596727 
1948	 7797.03032016668 
1949	 7814.0176623572 
1950	 7835.54617049319 
1951	 7839.66172647136 
1952	 7846.07420289094 
1953	 7866.15652583043 
1954	 7887.19279230616 
1955	 7916.64508549968 
1956	 7945.74963092902 
1957	 7967.23432657778 
1958	 7990.25453170791 
1959	 8017.39373134544 
1960	 8049.6200563944 
1961	 8074.98510034792 
1962	 8097.69430616077 
1963	 8123.91544150525 
1964	 8137.81825558415 
1965	 8157.73405863304 
1966	 8180.00935543574 
1967	 8188.1595030114 
1968	 8200.70541128912 
1969	 8222.63562298086 
1970	 8247.65190195901 
1971	 8287.28163171266 
1972	 8316.30577430369 
1973	 8350.06208844682 
1974	 8364.52256451494 
1975	 8376.34245142786 
1976	 8384.17526788972 
1977	 8390.53343702075 
1978	 8409.90616550142 
1979	 8424.78955511896 
1980	 8442.21758966959 
1981	 8467.81138917709 
1982	 8486.2537998908 
1983	 8504.89496842466 
1984	 8526.9710579946 
1985	 8545.38468356728 
1986	 8557.3125501979 
1987	 8572.1384263241 
1988	 8597.47263369255 
1989	 8621.06402812429 
1990	 8642.07217206551 
1991	 8661.50772060831 
1992	 8678.04221905759 
1993	 8696.31208212264 
1994	 8716.03661631338 
1995	 8744.97378701401 
1996	 8765.37087046719 
1997	 8779.22667185011 
1998	 8794.02336499098 
1999	 8809.95014046181 
2000	 8817.00105796713 
2001	 8821.70158608717 
2002	 8833.11637069622 
2003	 8835.11614432581 
2004	 8842.11408781897 
2005	 8864.57199272241 
2006	 8878.61589462897 
2007	 8892.26158723991 
2008	 8913.79590339287 
2009	 8922.25407626575 
2010	 8917.25647931959 
2011	 8921.27177187346 
2012	 8921.61492985774 
2013	 8927.16871160652 
2014	 8940.9315543602 
2015	 8958.53653514187 
2016	 8973.6022397169 
2017	 8982.3507026611 
2018	 8992.01765951826 
2019	 8989.79246683825 
2020	 8992.90627540854 
2021	 8999.35054032029 
2022	 9004.89737032373 
2023	 9011.04517052997 
2024	 9014.42575077472 
2025	 9020.42281442719 
2026	 9014.61177078465 
2027	 9006.47928335072 
2028	 9000.08029109534 
2029	 8992.95002364851 
2030	 8981.24500368973 
2031	 8965.49658220274 
2032	 8960.13545144475 
2033	 8956.00435775316 
2034	 8955.15094968723 
2035	 8951.10982693271 
2036	 8949.75171132882 
2037	 8945.33842208916 
2038	 8940.43886916575 
2039	 8933.08905565549 
2040	 8925.80634032385 
2041	 8914.98592690001 
2042	 8904.10419635959 
2043	 8889.21751647646 
2044	 8868.64062960703 
2045	 8846.16070491896 
2046	 8826.96333006022 
2047	 8808.505225888 
2048	 8792.15651856787 
2049	 8787.14563060106 
2050	 8774.36626923542 
2051	 8755.18595538308 
2052	 8737.16434399053 
2053	 8719.10619583887 
2054	 8698.88522193301 
2055	 8677.15742925821 
2056	 8664.82108165444 
2057	 8653.63859003578 
2058	 8637.8836231056 
2059	 8628.81603191096 
2060	 8618.94824754518 
2061	 8608.38037540102 
2062	 8594.29213917168 
2063	 8589.33022921228 
2064	 8590.90568654559 
2065	 8588.32506651835 
2066	 8597.82464451581 
2067	 8592.0578053221 
2068	 8577.77251871716 
2069	 8553.05298786731 
2070	 8537.12334900749 
2071	 8523.50792714668 
2072	 8512.91131074689 
2073	 8509.61093735384 
2074	 8508.9053054453 
2075	 8503.48437757594 
2076	 8499.09536477923 
2077	 8501.98159006253 
2078	 8498.42125385408 
2079	 8487.45686425256 
2080	 8480.06975284205 
2081	 8470.47590146593 
2082	 8463.55345367795 
2083	 8453.62901846061 
2084	 8457.75569642129 
2085	 8458.43461024517 
2086	 8460.73601552764 
2087	 8464.14738686876 
2088	 8443.28069015374 
2089	 8424.69879088871 
2090	 8414.5775388431 
2091	 8403.68591967484 
2092	 8405.18976748363 
2093	 8401.11701440143 
2094	 8400.92387389708 
2095	 8394.38500837742 
2096	 8376.99531517135 
2097	 8373.65165701708 
2098	 8380.83314267471 
2099	 8377.11504174752 
2100	 8378.3773246666 
2101	 8371.61594598793 
2102	 8351.01036566078 
2103	 8333.72070251868 
2104	 8331.72931606511 
2105	 8337.11941983619 
2106	 8339.28065064996 
2107	 8346.70360909652 
2108	 8343.47069057961 
2109	 8326.05621963308 
2110	 8319.49534215244 
2111	 8314.73996425422 
2112	 8307.39896847743 
2113	 8301.23056301284 
2114	 8296.89402866139 
2115	 8295.54184714823 
2116	 8289.49412716909 
2117	 8282.7449868416 
2118	 8274.04902066571 
2119	 8269.01696254312 
2120	 8255.6266448676 
2121	 8254.79547873686 
2122	 8262.67268500588 
2123	 8260.27355558272 
2124	 8258.89818479614 
2125	 8254.02374850759 
2126	 8241.74270164816 
2127	 8236.72686296314 
2128	 8235.51108040794 
2129	 8230.29968769294 
2130	 8221.66181087917 
2131	 8219.03019040931 
2132	 8221.71477871351 
2133	 8217.20771584502 
2134	 8215.28791519885 
2135	 8212.27512658125 
2136	 8192.76337069954 
2137	 8164.27885237623 
2138	 8148.3021221921 
2139	 8136.18204335364 
2140	 8128.82538035374 
2141	 8131.69975853085 
2142	 8130.11197035837 
2143	 8134.54352469356 
2144	 8128.94548631848 
2145	 8113.00469062174 
2146	 8111.10454116669 
2147	 8109.20921654437 
2148	 8105.22567129014 
2149	 8118.35551482731 
2150	 8117.79608791914 
2151	 8108.10324245364 
2152	 8092.32375237925 
2153	 8079.79738460945 
2154	 8062.54404379544 
2155	 8048.45182195829 
2156	 8044.34633834871 
2157	 8032.45870644011 
2158	 8016.82798324236 
2159	 8001.79419801572 
2160	 7983.93987130753 
2161	 7974.64611407872 
2162	 7978.38168834193 
2163	 7969.10277713262 
2164	 7955.72814701351 
2165	 7944.68703342231 
2166	 7929.94156243065 
2167	 7916.50286486847 
2168	 7902.96183829877 
2169	 7895.37693915071 
2170	 7889.74033163191 
2171	 7881.22743712738 
2172	 7880.92705140051 
2173	 7873.178804785 
2174	 7849.57228565873 
2175	 7831.2294015603 
2176	 7806.12556850267 
2177	 7783.80723092042 
2178	 7769.98180864408 
2179	 7753.92771956266 
2180	 7743.79311189349 
2181	 7738.58121853134 
2182	 7731.1567913305 
2183	 7728.23103161916 
2184	 7717.71939752797 
2185	 7704.29075430129 
2186	 7689.46747163283 
2187	 7665.4604762642 
2188	 7651.2643768155 
2189	 7643.00285943325 
2190	 7627.19381378283 
2191	 7609.85001072505 
2192	 7599.84737556074 
2193	 7579.93775897157 
2194	 7560.93908592059 
2195	 7548.44917397274 
2196	 7528.66002601259 
2197	 7499.51085523249 
2198	 7478.85522217509 
2199	 7456.84584480617 
2200	 7427.61149713912 
2201	 7403.20555086126 
2202	 7372.10366213665 
2203	 7341.67323933325 
2204	 7318.50592550841 
2205	 7291.62720762009 
2206	 7265.82257896124 
2207	 7240.67351184796 
2208	 7212.69577543255 
2209	 7188.5506442329 
2210	 7168.32733043597 
2211	 7145.36160358607 
2212	 7120.44999290066 
2213	 7097.50897707773 
2214	 7071.6284453229 
2215	 7058.42405518469 
2216	 7035.72695579525 
2217	 7014.97439651401 
2218	 6998.80062865134 
2219	 6970.84159446555 
2220	 6943.82185367109 
2221	 6914.02766856304 
2222	 6881.40178932626 
2223	 6846.53947321444 
2224	 6805.28238088181 
2225	 6769.47768154814 
2226	 6732.25130072347 
2227	 6694.28389216691 
2228	 6657.87364591153 
2229	 6626.672354226 
2230	 6592.05966464443 
2231	 6550.51216435759 
2232	 6518.16703902502 
2233	 6499.02683303332 
2234	 6464.13206591467 
2235	 6422.35721351595 
2236	 6387.06432336697 
2237	 6346.36586891536 
2238	 6305.90449393723 
2239	 6272.26941902089 
2240	 6235.05803096108 
2241	 6186.99136113645 
2242	 6140.11401075158 
2243	 6096.57408334817 
2244	 6053.71567469395 
2245	 6017.94270483446 
2246	 5971.53728456574 
2247	 5910.01839246365 
2248	 5850.49110532386 
2249	 5789.57721660904 
2250	 5733.08928291737 
2251	 5698.57722372027 
2252	 5673.36280519821 
2253	 5642.58545036982 
2254	 5604.88001568518 
2255	 5560.72296644901 
2256	 5505.96896406085 
2257	 5455.11164889275 
2258	 5396.26067604991 
2259	 5349.62178041882 
2260	 5312.08921338108 
2261	 5263.74261546012 
2262	 5219.7261607524 
2263	 5169.27433064466 
2264	 5102.93933327751 
2265	 5050.8913669316 
2266	 5003.74667839128 
2267	 4958.26649171611 
2268	 4918.71819682036 
2269	 4878.93824921266 
2270	 4842.46073165644 
2271	 4800.33870444425 
2272	 4756.74772243418 
2273	 4724.18602446773 
2274	 4692.22864075756 
2275	 4654.02707928347 
2276	 4618.96042449653 
2277	 4587.31528240013 
2278	 4561.33104621138 
2279	 4540.81763003607 
2280	 4515.53269744525 
2281	 4483.57791891412 
2282	 4446.75100168775 
2283	 4416.85450480557 
2284	 4391.3730067848 
2285	 4363.25470287007 
2286	 4331.27395377386 
2287	 4294.92927422923 
2288	 4261.98204934564 
2289	 4229.86596223408 
2290	 4200.30255016695 
2291	 4173.88821249133 
2292	 4143.64422193855 
2293	 4113.47664152785 
2294	 4082.42132200653 
2295	 4049.29973662721 
2296	 4013.9708487163 
2297	 3979.16085793342 
2298	 3945.56018841498 
2299	 3905.40225738091 
2300	 3872.58507033365 
2301	 3847.74177260355 
2302	 3814.62767550571 
2303	 3781.48457899066 
2304	 3761.01844662672 
2305	 3730.98792654318 
2306	 3684.73125680865 
2307	 3638.75104732493 
2308	 3590.71349221963 
2309	 3547.9000035792 
2310	 3514.89367374662 
2311	 3482.54039669295 
2312	 3458.48923883984 
2313	 3429.29176543311 
2314	 3392.6969512985 
2315	 3367.3492504933 
2316	 3339.73532115906 
2317	 3304.61826787712 
2318	 3276.01737852625 
2319	 3255.63863296194 
2320	 3226.60670007916 
2321	 3195.32886276707 
2322	 3173.14148311825 
2323	 3137.81943883309 
2324	 3093.62674788441 
2325	 3060.03907757069 
2326	 3028.65405587914 
2327	 2994.09292564047 
2328	 2968.29867433334 
2329	 2946.2843203169 
2330	 2920.07401650217 
2331	 2896.61875742968 
2332	 2880.63080617265 
2333	 2855.24962865601 
2334	 2825.0150839579 
2335	 2793.01086842443 
2336	 2754.2962895233 
2337	 2720.0161307323 
2338	 2683.49825938163 
2339	 2657.37138259541 
2340	 2641.52174797877 
2341	 2614.09148808434 
2342	 2586.33708470173 
2343	 2557.59289664662 
2344	 2518.93237650645 
2345	 2491.1140873597 
2346	 2471.16688446456 
2347	 2447.31216071206 
2348	 2425.2779653377 
2349	 2402.38912402945 
2350	 2373.45681604124 
2351	 2354.53531263847 
2352	 2342.89635119571 
2353	 2321.98879349053 
2354	 2301.49892525597 
2355	 2286.10890796482 
2356	 2262.3267750937 
2357	 2234.21223815996 
2358	 2210.32290812451 
2359	 2189.83800111998 
2360	 2172.27659582491 
2361	 2153.8003528942 
2362	 2144.30022345335 
2363	 2131.20211038846 
2364	 2102.80338156445 
2365	 2084.52844439772 
2366	 2066.03212961539 
2367	 2033.52647382145 
2368	 2006.62047287605 
2369	 1980.43756409247 
2370	 1951.10473373297 
2371	 1931.17061840832 
2372	 1911.90974586536 
2373	 1894.07338321661 
2374	 1876.18230760118 
2375	 1853.02380588397 
2376	 1829.05897143089 
2377	 1803.69337701341 
2378	 1787.40143964851 
2379	 1773.57770757296 
2380	 1757.60849509473 
2381	 1740.44239606515 
2382	 1711.03315950831 
2383	 1684.58358939228 
2384	 1661.41989003763 
2385	 1642.87296962482 
2386	 1636.07180549084 
2387	 1624.20394816497 
2388	 1613.24721907219 
2389	 1599.59558032132 
2390	 1570.8264300641 
2391	 1541.14952567819 
2392	 1523.78178598672 
2393	 1502.29292046007 
2394	 1481.7608260473 
2395	 1474.03624389784 
2396	 1453.44133231597 
2397	 1438.68421993962 
2398	 1437.13077066863 
2399	 1417.84480018123 
2400	 1392.15756758195 
2401	 1359.06867572814 
2402	 1322.12009806533 
2403	 1306.20804020512 
2404	 1295.92513258698 
2405	 1291.03258453007 
2406	 1283.7903631762 
2407	 1259.72107892567 
2408	 1240.68452229175 
2409	 1222.16204769244 
2410	 1206.73816534696 
2411	 1200.90376779428 
2412	 1181.71652392632 
2413	 1161.44252154067 
2414	 1149.59217296095 
2415	 1130.4387692622 
2416	 1114.59738102473 
2417	 1102.0998064265 
2418	 1081.67557617841 
2419	 1063.48072206258 
2420	 1052.77193312767 
2421	 1032.83368779338 
2422	 1017.52531806051 
2423	 1012.17416563912 
2424	 1000.98109686879 
2425	 995.019106553116 
2426	 980.250748416142 
2427	 959.45570121833 
2428	 941.3146109025 
2429	 921.628473911032 
2430	 908.04235910315 
2431	 889.197300381593 
2432	 873.520499407497 
2433	 869.700658270981 
2434	 867.569471890344 
2435	 856.443334768523 
2436	 837.853760120995 
2437	 827.944485641608 
2438	 820.136322655183 
2439	 812.26636946988 
2440	 812.547089267311 
2441	 802.424628352327 
2442	 782.732107593615 
2443	 771.299898226981 
2444	 756.571009482329 
2445	 741.541863657865 
2446	 730.839026791509 
2447	 718.841615405953 
2448	 711.509089073033 
2449	 701.269997325203 
2450	 679.358865828323 
2451	 661.394150585869 
2452	 653.866177800348 
2453	 649.353832154264 
2454	 653.878711715982 
2455	 654.257884591667 
2456	 640.279359033524 
2457	 622.242708199083 
2458	 605.481599847478 
2459	 592.632241718577 
2460	 593.447668897316 
2461	 596.529375780167 
2462	 596.961076565796 
2463	 602.002024223132 
2464	 591.393523092751 
2465	 568.195254343556 
2466	 548.206763213103 
2467	 531.998455482974 
2468	 521.856506425631 
2469	 523.532351037908 
2470	 519.918943463538 
2471	 508.314686259592 
2472	 498.287187882653 
2473	 491.086477347406 
2474	 488.671036942763 
2475	 489.358033294857 
2476	 489.580219580875 
2477	 481.655494016649 
2478	 479.398150029419 
2479	 472.831253060767 
2480	 457.400900133551 
2481	 442.623498527451 
2482	 433.398421788478 
2483	 429.906227665567 
2484	 421.383766581122 
2485	 422.873646316368 
2486	 418.430585333217 
2487	 405.647525172774 
2488	 408.114952259506 
2489	 408.267510587757 
2490	 404.612040354942 
2491	 408.144034711572 
2492	 397.82298741799 
2493	 387.469492388931 
2494	 389.044466343386 
2495	 376.873935785812 
2496	 369.974385287524 
2497	 366.813188548463 
2498	 351.861549294778 
2499	 335.586176231931 
2500	 325.508161284804 
