Wavelength	spectrum00006.asd
350	 12.8214471344703 
351	 13.6358891262389 
352	 14.5001561511081 
353	 15.6881821094723 
354	 17.5999579253703 
355	 19.5934335094473 
356	 20.8911226089091 
357	 21.9532868346217 
358	 24.0548295871149 
359	 23.7814327674694 
360	 24.5229579393262 
361	 27.7848909378747 
362	 27.8224842261127 
363	 29.6007776844624 
364	 32.2375650009399 
365	 33.0951669807701 
366	 34.7297476690326 
367	 37.1812227533325 
368	 39.6215627632868 
369	 40.454774468462 
370	 41.3766135635298 
371	 43.7660148014078 
372	 47.8378137961412 
373	 50.4622861087036 
374	 53.202525512633 
375	 54.8955936122011 
376	 53.4238202954774 
377	 56.398690612325 
378	 60.2081581884851 
379	 62.2293280570066 
380	 64.6315981570126 
381	 67.6831598442891 
382	 70.9750440816935 
383	 73.8094354285685 
384	 75.8657892635531 
385	 77.8182873935009 
386	 79.8615399629763 
387	 81.6776229581359 
388	 86.0187503696781 
389	 89.8984646645135 
390	 91.0790461279201 
391	 93.1899589550101 
392	 97.1935323520075 
393	 101.806514118598 
394	 104.601804709578 
395	 106.972064411598 
396	 109.907278887531 
397	 113.942797144039 
398	 119.015374749254 
399	 123.46500290131 
400	 127.493426342654 
401	 131.763458624885 
402	 135.34720620652 
403	 139.430604260865 
404	 144.469060389565 
405	 150.011052086524 
406	 154.707129726598 
407	 159.533491903495 
408	 165.355017833048 
409	 170.919541731604 
410	 177.478840519126 
411	 184.555732093856 
412	 190.811328237174 
413	 197.6934233805 
414	 204.87103353098 
415	 212.144360016446 
416	 219.922618479122 
417	 229.081743144478 
418	 238.214377209731 
419	 245.90958723881 
420	 255.865239273004 
421	 266.302251271337 
422	 275.9525538418 
423	 284.579141205134 
424	 295.996883133142 
425	 307.275339049397 
426	 316.060293895867 
427	 327.884638276924 
428	 339.61584512353 
429	 351.101382013844 
430	 364.032604404587 
431	 374.961633028205 
432	 386.154043438187 
433	 399.099512317049 
434	 411.830214551311 
435	 423.503365809452 
436	 434.478655276482 
437	 445.930247738646 
438	 459.815800558931 
439	 473.583400225207 
440	 486.055825178683 
441	 498.493842249137 
442	 510.47047831799 
443	 522.193698492979 
444	 533.885209185716 
445	 545.2500956281 
446	 555.420504017962 
447	 565.257971187728 
448	 576.997073603419 
449	 588.105507577555 
450	 598.103286761275 
451	 607.048311182222 
452	 615.204126854894 
453	 622.804728491358 
454	 630.688636016895 
455	 639.459177506662 
456	 644.342944997004 
457	 649.164145827521 
458	 655.765514015169 
459	 660.282982870071 
460	 666.973692565213 
461	 673.205247457449 
462	 675.519269471956 
463	 680.818503841012 
464	 686.449280862456 
465	 690.747751134949 
466	 693.983205156444 
467	 698.356828663672 
468	 702.920062480879 
469	 706.580552565202 
470	 711.053032576205 
471	 715.659229750547 
472	 720.179223063284 
473	 724.849226565932 
474	 730.890611709183 
475	 736.819366569572 
476	 741.675811253315 
477	 746.924558285228 
478	 752.977901043314 
479	 759.656909769385 
480	 766.361675836577 
481	 772.471376962407 
482	 778.287774802253 
483	 784.177204828387 
484	 790.391167286642 
485	 797.116865490527 
486	 803.823809757078 
487	 809.932320508216 
488	 815.944765476013 
489	 823.484473243132 
490	 831.581957433773 
491	 836.321095380819 
492	 844.575904668506 
493	 854.085576854946 
494	 862.252350789988 
495	 874.459813170995 
496	 884.965522240984 
497	 893.922276026663 
498	 906.039140564417 
499	 919.43152133468 
500	 932.793608921313 
501	 945.743604235382 
502	 959.907581885545 
503	 975.670029317581 
504	 992.474702660669 
505	 1009.41373382218 
506	 1027.75115256304 
507	 1047.04826909164 
508	 1067.53097261056 
509	 1090.98124574775 
510	 1115.83834076358 
511	 1140.67411727816 
512	 1164.87675231509 
513	 1191.68400856792 
514	 1221.4063900347 
515	 1253.85029065287 
516	 1288.47274186078 
517	 1324.31396233188 
518	 1361.66936736683 
519	 1401.05818763051 
520	 1442.37945960799 
521	 1485.39486005241 
522	 1529.95801099359 
523	 1575.97391836539 
524	 1623.04106785368 
525	 1669.93060627039 
526	 1716.39303412388 
527	 1765.19184720459 
528	 1813.25964578272 
529	 1860.4953228779 
530	 1908.10025412259 
531	 1953.16711151176 
532	 2000.02996322006 
533	 2049.68142921513 
534	 2095.64882456434 
535	 2139.52505094618 
536	 2182.52026632627 
537	 2225.32663519884 
538	 2264.85639100392 
539	 2304.84541328306 
540	 2345.68956766771 
541	 2383.11227028277 
542	 2421.10694613218 
543	 2460.02944611248 
544	 2499.19337292183 
545	 2537.90231941639 
546	 2576.76033086651 
547	 2615.70666881436 
548	 2654.09842725272 
549	 2691.91218937896 
550	 2729.67839199082 
551	 2767.17171330183 
552	 2801.91935269059 
553	 2834.5971405954 
554	 2865.48825900481 
555	 2894.31748187443 
556	 2917.05148889987 
557	 2938.1942881134 
558	 2959.4299501893 
559	 2975.06844711097 
560	 2987.82828465056 
561	 2997.9320087247 
562	 3004.71919536348 
563	 3007.53758338386 
564	 3006.55143967986 
565	 3001.98572058827 
566	 2994.00465835542 
567	 2985.88380609651 
568	 2975.82981388342 
569	 2962.05316361398 
570	 2948.04644002418 
571	 2938.19273279991 
572	 2933.4262132973 
573	 2931.49664489156 
574	 2930.63760818821 
575	 2930.5141955854 
576	 2932.00963204269 
577	 2938.10461423491 
578	 2947.49466441192 
579	 2959.93046633056 
580	 2975.46855240858 
581	 2992.52446516422 
582	 3008.82111723809 
583	 3022.99228083405 
584	 3035.81326682059 
585	 3040.37651459502 
586	 3041.75135888403 
587	 3047.41561434394 
588	 3049.00672491842 
589	 3051.30212737467 
590	 3054.89652631278 
591	 3054.31716814628 
592	 3054.51881793641 
593	 3052.43847039027 
594	 3045.31432241501 
595	 3038.91105915824 
596	 3034.11065380432 
597	 3030.81033612167 
598	 3028.23298767816 
599	 3028.58870201291 
600	 3029.51432153928 
601	 3028.83247981506 
602	 3026.6505140992 
603	 3025.30704569703 
604	 3024.29579884577 
605	 3021.7144304927 
606	 3017.69077662206 
607	 3013.2899227322 
608	 3008.7298457767 
609	 3002.57760870835 
610	 2996.75556978156 
611	 2991.47187776107 
612	 2986.07267118647 
613	 2978.4842307983 
614	 2973.10683373493 
615	 2969.96055944724 
616	 2964.29015895758 
617	 2961.53254353714 
618	 2960.64198147444 
619	 2960.35739779305 
620	 2963.88990943675 
621	 2967.35638687335 
622	 2970.64762418794 
623	 2976.06041880996 
624	 2982.36604509386 
625	 2989.93538810622 
626	 2999.20901090891 
627	 3010.84331199541 
628	 3019.58529330555 
629	 3027.02642568894 
630	 3036.63604577837 
631	 3044.34276379098 
632	 3050.33064744147 
633	 3054.42150837711 
634	 3055.59252373989 
635	 3054.42139718681 
636	 3051.5335744416 
637	 3047.39614571391 
638	 3041.50806365048 
639	 3036.40624077419 
640	 3030.75153489887 
641	 3020.6436751425 
642	 3011.58451435418 
643	 3003.54552632534 
644	 2995.55483373362 
645	 2986.58125845653 
646	 2978.55397106039 
647	 2972.92843518693 
648	 2970.33213820156 
649	 2967.22543108334 
650	 2966.99280556923 
651	 2969.87715515876 
652	 2970.96635244261 
653	 2973.65581538677 
654	 2978.06153987837 
655	 2983.45948498341 
656	 2989.70884587259 
657	 2995.30597638588 
658	 3000.80355751218 
659	 3008.14955505214 
660	 3012.7975546613 
661	 3017.57678688304 
662	 3025.67365242517 
663	 3038.53570394942 
664	 3050.69611195814 
665	 3061.53661509995 
666	 3073.07232338918 
667	 3087.87490591415 
668	 3104.91074945985 
669	 3122.81181367342 
670	 3140.25180041712 
671	 3161.04374254113 
672	 3184.35375311774 
673	 3208.212444175 
674	 3231.52811938464 
675	 3257.69706160613 
676	 3286.41854580927 
677	 3314.73266891641 
678	 3345.23910742765 
679	 3376.0240290746 
680	 3407.10006202718 
681	 3444.14784525955 
682	 3484.22321619347 
683	 3525.55961678001 
684	 3567.78077793421 
685	 3616.33882463593 
686	 3668.86453927686 
687	 3724.68883033344 
688	 3785.80049609797 
689	 3855.92690571709 
690	 3933.89699548628 
691	 4019.70016993114 
692	 4120.86311509045 
693	 4234.41931016424 
694	 4362.21533041176 
695	 4508.60437966015 
696	 4671.9326957547 
697	 4854.73858625982 
698	 5057.68602699783 
699	 5277.40080340488 
700	 5520.83815549406 
701	 5782.45364655216 
702	 6054.91504813776 
703	 6343.07670976385 
704	 6642.66556771838 
705	 6950.63534247388 
706	 7265.43189792158 
707	 7586.77805846297 
708	 7915.62198256889 
709	 8252.20692310859 
710	 8594.52242179935 
711	 8943.85576345614 
712	 9299.57066405899 
713	 9660.52799829307 
714	 10027.6691490714 
715	 10400.0725696912 
716	 10776.6258555123 
717	 11156.200708503 
718	 11538.4304067554 
719	 11925.5642173521 
720	 12318.1886146027 
721	 12710.9654245467 
722	 13102.4873851056 
723	 13492.3932858278 
724	 13880.373865041 
725	 14260.5813506034 
726	 14637.5339494506 
727	 15013.4481212121 
728	 15385.9112029873 
729	 15750.1540846503 
730	 16108.2159820132 
731	 16461.8237111459 
732	 16804.4221113202 
733	 17140.001328856 
734	 17470.0870542888 
735	 17793.7808017302 
736	 18104.0855907274 
737	 18406.8569019804 
738	 18705.7264094082 
739	 18998.1768201315 
740	 19284.4609002163 
741	 19563.3801468918 
742	 19834.1651054042 
743	 20100.5822171188 
744	 20348.7537780607 
745	 20578.45415197 
746	 20800.9658391966 
747	 21033.9390743418 
748	 21262.9331812065 
749	 21481.7311817174 
750	 21706.2918386965 
751	 21923.2500993101 
752	 22134.0791127594 
753	 22342.670352486 
754	 22543.5079110109 
755	 22740.2256682717 
756	 22937.4635630837 
757	 23138.8313982386 
758	 23333.7968466391 
759	 23514.0650724312 
760	 23682.6669861297 
761	 23859.9614167157 
762	 24039.2946143027 
763	 24219.1690515192 
764	 24397.0765995928 
765	 24563.7975031167 
766	 24720.911234586 
767	 24872.5646131112 
768	 25023.7283603937 
769	 25170.5701257054 
770	 25310.733108615 
771	 25450.4592199631 
772	 25608.6665451499 
773	 25758.9403840192 
774	 25890.3589687459 
775	 26000.3816631232 
776	 26096.8126998381 
777	 26183.6992987076 
778	 26261.6570889015 
779	 26330.9740496916 
780	 26407.5037972326 
781	 26478.8596478159 
782	 26538.3716446054 
783	 26590.7539773024 
784	 26642.6655011558 
785	 26690.7690143314 
786	 26731.2695621307 
787	 26766.6189707201 
788	 26796.2167595373 
789	 26819.2922916295 
790	 26835.677069545 
791	 26849.2008871921 
792	 26856.9871680695 
793	 26860.1313135451 
794	 26863.5322914668 
795	 26859.1855280724 
796	 26850.8652742654 
797	 26840.6728540512 
798	 26822.8478377864 
799	 26798.9095243345 
800	 26768.5141463998 
801	 26730.8381984834 
802	 26685.755111783 
803	 26627.9300689122 
804	 26565.0006459278 
805	 26511.3973813701 
806	 26454.7839329955 
807	 26393.677255489 
808	 26330.0975933198 
809	 26268.941233776 
810	 26194.5551852365 
811	 26115.4897841035 
812	 26040.118725546 
813	 25959.4445362286 
814	 25870.8229452842 
815	 25771.8348371092 
816	 25662.589044643 
817	 25552.6153284605 
818	 25440.4645990449 
819	 25325.418737754 
820	 25208.1332212861 
821	 25091.2454184361 
822	 24968.8703761542 
823	 24839.1185204936 
824	 24708.6907727312 
825	 24575.1510827077 
826	 24439.875375604 
827	 24303.3728438596 
828	 24159.9767038399 
829	 24019.5785417549 
830	 23879.1804831186 
831	 23731.718712248 
832	 23587.0880798374 
833	 23438.9864370146 
834	 23285.7801293282 
835	 23131.3346956746 
836	 22979.1495838613 
837	 22832.3135836515 
838	 22690.5224103992 
839	 22548.6674306197 
840	 22407.9608543912 
841	 22268.7056856322 
842	 22129.8130809152 
843	 21986.0380506876 
844	 21845.9738909017 
845	 21709.8061118555 
846	 21574.2541123889 
847	 21439.3757381679 
848	 21308.5559255796 
849	 21179.3545432202 
850	 21046.1448838038 
851	 20919.1726706011 
852	 20792.3322549835 
853	 20663.2280926414 
854	 20536.7910329241 
855	 20407.8935251515 
856	 20277.2262267708 
857	 20146.9310095227 
858	 20018.9674848047 
859	 19897.1976418483 
860	 19780.3720186119 
861	 19664.3516521747 
862	 19543.3845669315 
863	 19413.5497455769 
864	 19279.7104956467 
865	 19149.721652393 
866	 19018.3503664178 
867	 18885.5912485907 
868	 18751.6556858933 
869	 18616.7427504909 
870	 18481.412291599 
871	 18345.5569485283 
872	 18209.5758273479 
873	 18074.5134171549 
874	 17934.7622791314 
875	 17793.7581590098 
876	 17654.2138617602 
877	 17512.85034456 
878	 17372.7350678508 
879	 17234.3346051646 
880	 17095.8347396735 
881	 16950.8920246469 
882	 16806.0810927764 
883	 16663.42312424 
884	 16521.7739594221 
885	 16376.4244088866 
886	 16232.2979422466 
887	 16088.2855429168 
888	 15940.0823371856 
889	 15794.0228793843 
890	 15648.6621034279 
891	 15504.24556533 
892	 15362.6988459399 
893	 15216.0803749445 
894	 15069.283588698 
895	 14925.1035943437 
896	 14780.5226885234 
897	 14638.0254467552 
898	 14495.5535782166 
899	 14352.3008311956 
900	 14211.7269124259 
901	 14073.4203634601 
902	 13934.0590525878 
903	 13791.5211641538 
904	 13648.8188082923 
905	 13511.260851579 
906	 13376.8308141757 
907	 13241.7221678986 
908	 13107.8892282948 
909	 12971.9882481006 
910	 12836.4870831423 
911	 12705.3200994241 
912	 12573.8054622509 
913	 12443.4857961606 
914	 12314.0326928053 
915	 12184.2442889561 
916	 12056.9882026194 
917	 11930.833582585 
918	 11804.6474748332 
919	 11678.072711595 
920	 11551.3590230356 
921	 11427.9345877383 
922	 11307.1617204983 
923	 11184.0679786655 
924	 11061.2696254956 
925	 10938.8948663159 
926	 10816.0396421435 
927	 10691.2228165161 
928	 10570.6627724151 
929	 10450.3555959787 
930	 10327.3966533585 
931	 10204.2076358387 
932	 10084.7539530423 
933	 9964.96710553024 
934	 9842.49450506039 
935	 9722.12100941843 
936	 9607.89601136189 
937	 9495.80290488751 
938	 9381.54212562818 
939	 9266.05746427016 
940	 9150.72084775884 
941	 9037.05698384325 
942	 8925.33256023519 
943	 8812.78238933578 
944	 8698.17843183431 
945	 8583.606722188 
946	 8471.29908399985 
947	 8359.9927958066 
948	 8248.18282995454 
949	 8133.92776787453 
950	 8018.04891062186 
951	 7911.01123130799 
952	 7800.91406962225 
953	 7688.76824049828 
954	 7580.03449649754 
955	 7474.02413001214 
956	 7367.15763170995 
957	 7258.76682799189 
958	 7150.58209012322 
959	 7047.02109626987 
960	 6945.49261597848 
961	 6844.46369985794 
962	 6743.41641938528 
963	 6643.17691064048 
964	 6543.14245108108 
965	 6444.23082428795 
966	 6347.57779113187 
967	 6252.04689746133 
968	 6155.82955406195 
969	 6059.55293724036 
970	 5964.89185291535 
971	 5871.7214639401 
972	 5781.45501326627 
973	 5691.54676875593 
974	 5599.48875772833 
975	 5511.87114152622 
976	 5423.30077785526 
977	 5335.06198446172 
978	 5250.3605747416 
979	 5164.93829168492 
980	 5080.83647917905 
981	 4996.96836805728 
982	 4912.42447982267 
983	 4833.2107957185 
984	 4753.79453266699 
985	 4674.5248304859 
986	 4597.27991534088 
987	 4518.59218634045 
988	 4441.50514048204 
989	 4365.63350311292 
990	 4289.83516733766 
991	 4215.49432716634 
992	 4143.318329786 
993	 4072.26485137579 
994	 4001.06759439932 
995	 3930.02788166043 
996	 3858.43356671011 
997	 3788.28024688774 
998	 3721.15613532754 
999	 3655.41350726972 
1000	 3588.95058225754 
1001	 7855.4019273491 
1002	 7888.10842219486 
1003	 7928.90444709481 
1004	 7974.02447295644 
1005	 8009.65964829098 
1006	 8055.5268989491 
1007	 8109.48103429199 
1008	 8165.34979328066 
1009	 8225.86156670731 
1010	 8288.56965380587 
1011	 8351.47742187213 
1012	 8417.7937717951 
1013	 8481.35915938511 
1014	 8555.3725692794 
1015	 8640.56055317725 
1016	 8720.98403694336 
1017	 8803.2829536981 
1018	 8889.89507730247 
1019	 8969.98315745456 
1020	 9053.93014174653 
1021	 9141.24010015935 
1022	 9222.81636746813 
1023	 9312.5225318002 
1024	 9397.59600563686 
1025	 9480.08761834094 
1026	 9565.59691053984 
1027	 9644.81277772497 
1028	 9717.08263209696 
1029	 9790.94110500508 
1030	 9863.10159673273 
1031	 9925.57576551184 
1032	 9991.87147009785 
1033	 10049.4901449936 
1034	 10095.9564359561 
1035	 10145.4388418365 
1036	 10189.6424996902 
1037	 10227.4392440766 
1038	 10266.9847969502 
1039	 10303.0463557702 
1040	 10332.2164245252 
1041	 10354.7924998233 
1042	 10374.0023394797 
1043	 10386.1963022217 
1044	 10390.3193413907 
1045	 10398.6143304657 
1046	 10405.9308719489 
1047	 10417.4120990426 
1048	 10440.4691190419 
1049	 10451.4837244943 
1050	 10454.8630219953 
1051	 10459.1716484325 
1052	 10457.7840597247 
1053	 10462.1293945448 
1054	 10467.8781775274 
1055	 10482.1475502563 
1056	 10502.1147692208 
1057	 10519.5471451503 
1058	 10533.3681807915 
1059	 10551.1021379443 
1060	 10572.5951970217 
1061	 10602.8054768559 
1062	 10639.9616207547 
1063	 10681.7087227102 
1064	 10724.6232675688 
1065	 10768.8671513619 
1066	 10816.1317507969 
1067	 10872.1853784647 
1068	 10935.0826330749 
1069	 11007.5351537453 
1070	 11080.8483588512 
1071	 11163.4070839991 
1072	 11253.3320570375 
1073	 11343.4911736884 
1074	 11448.7656548327 
1075	 11563.571715076 
1076	 11681.602862091 
1077	 11811.3410786628 
1078	 11949.8902957326 
1079	 12093.6497804128 
1080	 12238.214715644 
1081	 12389.570032948 
1082	 12540.6921986512 
1083	 12692.582862918 
1084	 12849.3903534743 
1085	 13010.6619858841 
1086	 13174.7397371465 
1087	 13343.9453094982 
1088	 13508.3340029483 
1089	 13668.2444320766 
1090	 13832.8228891616 
1091	 13993.4408597487 
1092	 14152.5095583878 
1093	 14308.6648495354 
1094	 14467.1070362353 
1095	 14616.7290823747 
1096	 14759.4195990033 
1097	 14899.3302500179 
1098	 15039.4457353158 
1099	 15183.4055780957 
1100	 15327.4184238177 
1101	 15465.8193185222 
1102	 15595.3877198637 
1103	 15722.0189519413 
1104	 15842.8217935847 
1105	 15961.1851440139 
1106	 16077.6055020845 
1107	 16190.8891893479 
1108	 16302.3508643338 
1109	 16414.4098724834 
1110	 16519.80617071 
1111	 16621.3666369526 
1112	 16720.5343269015 
1113	 16815.4200231504 
1114	 16902.1185417276 
1115	 16988.3000787805 
1116	 17073.8242068699 
1117	 17153.4945129196 
1118	 17238.7751441493 
1119	 17322.7565428325 
1120	 17408.7164527794 
1121	 17489.2466472694 
1122	 17566.1044406732 
1123	 17643.9234150475 
1124	 17716.0409317459 
1125	 17795.1612960225 
1126	 17878.4284213886 
1127	 17964.3095038528 
1128	 18051.6954189887 
1129	 18133.6581782277 
1130	 18208.0563890423 
1131	 18280.3634796211 
1132	 18343.8764615193 
1133	 18391.7627136271 
1134	 18452.8378583658 
1135	 18513.7367293132 
1136	 18576.0286799615 
1137	 18646.9316991152 
1138	 18712.1767379634 
1139	 18777.3069919906 
1140	 18833.9742540411 
1141	 18883.7176094704 
1142	 18937.5140364877 
1143	 18983.1514643406 
1144	 19029.2611204253 
1145	 19076.4656933101 
1146	 19120.2287794193 
1147	 19162.583473804 
1148	 19198.3231395056 
1149	 19241.2298676114 
1150	 19285.5655862661 
1151	 19330.7684323713 
1152	 19379.8505465369 
1153	 19427.3202219862 
1154	 19475.1641268326 
1155	 19523.41957898 
1156	 19571.9990213013 
1157	 19620.4962584556 
1158	 19671.8010331096 
1159	 19717.0561527664 
1160	 19753.065028771 
1161	 19790.4388172735 
1162	 19828.2200172109 
1163	 19857.9282878925 
1164	 19898.2631068026 
1165	 19950.3969956816 
1166	 19990.0695421503 
1167	 20032.5955864331 
1168	 20065.2656805338 
1169	 20084.086325981 
1170	 20108.9803755819 
1171	 20132.3585754633 
1172	 20151.3793639031 
1173	 20184.5520286305 
1174	 20216.6537577277 
1175	 20239.7569220086 
1176	 20262.5612351125 
1177	 20281.9710816305 
1178	 20289.2180202977 
1179	 20306.6267967582 
1180	 20328.1343453497 
1181	 20349.3077384189 
1182	 20374.478511039 
1183	 20395.0983724964 
1184	 20415.2091079991 
1185	 20434.7168433775 
1186	 20448.4408633608 
1187	 20466.8715414525 
1188	 20488.8581641963 
1189	 20508.341584396 
1190	 20531.5553233938 
1191	 20557.4557189526 
1192	 20583.5305012753 
1193	 20614.6536541026 
1194	 20636.678629675 
1195	 20654.8424217177 
1196	 20675.0707518876 
1197	 20684.8533936422 
1198	 20708.2199138662 
1199	 20741.5171994706 
1200	 20771.8980545884 
1201	 20806.871284497 
1202	 20841.4513042221 
1203	 20877.355930295 
1204	 20911.7814179327 
1205	 20939.3216530825 
1206	 20972.562360386 
1207	 21005.3299744296 
1208	 21034.4926041514 
1209	 21067.737621503 
1210	 21107.0426524935 
1211	 21141.9648657048 
1212	 21171.8046961029 
1213	 21208.4856618928 
1214	 21249.1060960625 
1215	 21288.8523625624 
1216	 21333.5278636005 
1217	 21374.3109552729 
1218	 21413.3445585234 
1219	 21451.0729753155 
1220	 21484.6240338397 
1221	 21523.4414146737 
1222	 21556.5418158443 
1223	 21588.0321756128 
1224	 21616.7683570691 
1225	 21642.6371681937 
1226	 21667.4987085773 
1227	 21688.1346445618 
1228	 21712.4434267197 
1229	 21739.4923144894 
1230	 21761.7210236118 
1231	 21783.0361552779 
1232	 21803.574789038 
1233	 21822.1145266832 
1234	 21837.5093527847 
1235	 21856.1370786192 
1236	 21866.8599055709 
1237	 21872.2126737099 
1238	 21869.9373785696 
1239	 21869.5786400506 
1240	 21865.3983693333 
1241	 21860.3584946785 
1242	 21854.6580462408 
1243	 21846.9208012498 
1244	 21834.286266909 
1245	 21825.0892116029 
1246	 21818.4306258826 
1247	 21807.7740190182 
1248	 21798.2583444436 
1249	 21783.9695723102 
1250	 21763.2728897843 
1251	 21744.7063962234 
1252	 21720.788400229 
1253	 21702.9595301061 
1254	 21687.9315438627 
1255	 21676.2788860533 
1256	 21662.9024913344 
1257	 21653.1147034546 
1258	 21640.3074704997 
1259	 21626.0837795717 
1260	 21610.7184590615 
1261	 21597.5882779947 
1262	 21577.8910326106 
1263	 21551.5603697652 
1264	 21528.9583106971 
1265	 21508.0490511699 
1266	 21480.4388473208 
1267	 21456.5374868087 
1268	 21421.6130126479 
1269	 21376.3537879025 
1270	 21328.2149521368 
1271	 21274.5722612765 
1272	 21215.323790179 
1273	 21154.616436554 
1274	 21089.2191656003 
1275	 21023.5545807822 
1276	 20955.6739518248 
1277	 20886.0322286287 
1278	 20810.5330722938 
1279	 20742.8690817623 
1280	 20678.1145557956 
1281	 20610.9271116654 
1282	 20548.252692754 
1283	 20481.9298437428 
1284	 20406.4608358347 
1285	 20340.6096073617 
1286	 20277.2928786035 
1287	 20218.6329599805 
1288	 20165.0971896034 
1289	 20115.4256489344 
1290	 20070.6320889593 
1291	 20028.2971074935 
1292	 19988.7639622377 
1293	 19953.4734381147 
1294	 19920.3885784766 
1295	 19885.7174089966 
1296	 19863.6691049647 
1297	 19848.9913143161 
1298	 19837.8078143966 
1299	 19836.2893240912 
1300	 19834.6291246423 
1301	 19833.9945863472 
1302	 19839.2318034472 
1303	 19850.0965090033 
1304	 19862.8353386498 
1305	 19879.4982729649 
1306	 19898.4335017677 
1307	 19919.9927878409 
1308	 19944.2183193588 
1309	 19971.080874323 
1310	 19999.9128147767 
1311	 20025.8271469677 
1312	 20050.8721085091 
1313	 20077.8323475223 
1314	 20103.3232611928 
1315	 20131.6772333275 
1316	 20164.9478132532 
1317	 20192.281124448 
1318	 20217.9394488677 
1319	 20243.8271556114 
1320	 20268.2541605182 
1321	 20291.1886518432 
1322	 20315.0965870049 
1323	 20335.2664301735 
1324	 20349.9281519549 
1325	 20366.6157288865 
1326	 20384.5669041975 
1327	 20399.781022777 
1328	 20412.2044793143 
1329	 20423.0383266763 
1330	 20431.5961020415 
1331	 20433.0383529752 
1332	 20443.1994250453 
1333	 20459.6797100217 
1334	 20466.2679969918 
1335	 20473.892835663 
1336	 20475.1047814436 
1337	 20465.6313674371 
1338	 20461.3032531843 
1339	 20462.0196493603 
1340	 20452.787883965 
1341	 20442.1074426925 
1342	 20423.0939691231 
1343	 20395.591251789 
1344	 20363.5317875603 
1345	 20326.5760079275 
1346	 20283.8120384815 
1347	 20237.0429855015 
1348	 20182.9101193146 
1349	 20120.4345526892 
1350	 20047.2346740231 
1351	 19958.4885755604 
1352	 19849.1673005617 
1353	 19747.4325698698 
1354	 19630.7108603541 
1355	 19530.4385588569 
1356	 19440.2462383298 
1357	 19342.9642186684 
1358	 19246.86954078 
1359	 19150.2196449836 
1360	 19027.5645766647 
1361	 18952.4345121497 
1362	 18889.7850307932 
1363	 18855.7484170994 
1364	 18874.1952423123 
1365	 18879.1750058371 
1366	 18900.6218488887 
1367	 18915.0422153475 
1368	 18922.9585872954 
1369	 18935.2911615773 
1370	 18959.4716629786 
1371	 18991.0333079017 
1372	 19008.3585246003 
1373	 19047.7449730442 
1374	 19024.5204043905 
1375	 18988.84026146 
1376	 18886.361849211 
1377	 18725.0423304041 
1378	 18551.7001408198 
1379	 18305.8417797434 
1380	 18105.6431803377 
1381	 17875.976229746 
1382	 17711.4373577641 
1383	 17584.3248763688 
1384	 17472.9692294349 
1385	 17432.3772733996 
1386	 17345.6985825189 
1387	 17274.3789948764 
1388	 17157.1724356165 
1389	 17013.8378635877 
1390	 16836.0030310803 
1391	 16628.3463371324 
1392	 16399.0166987243 
1393	 16163.4979417062 
1394	 15933.9185481381 
1395	 15721.4580763218 
1396	 15517.5932281282 
1397	 15325.1230365298 
1398	 15146.5048189451 
1399	 14971.2473308536 
1400	 14805.0081505488 
1401	 14643.0114559754 
1402	 14489.116681803 
1403	 14336.4578303099 
1404	 14186.9100054085 
1405	 14043.5829839407 
1406	 13895.2535872488 
1407	 13770.2253760979 
1408	 13660.1733238349 
1409	 13557.0230247761 
1410	 13477.7548360715 
1411	 13391.2355528301 
1412	 13303.7321495973 
1413	 13222.4726212748 
1414	 13144.9356046967 
1415	 13066.7407335411 
1416	 13000.6612601595 
1417	 12937.2796076831 
1418	 12872.9551094346 
1419	 12814.4430535269 
1420	 12758.4215789376 
1421	 12703.3964452057 
1422	 12654.656460754 
1423	 12612.1414730498 
1424	 12570.2563301406 
1425	 12531.4926160362 
1426	 12495.1353252618 
1427	 12460.686434125 
1428	 12430.1354866967 
1429	 12402.3536040226 
1430	 12378.3476386108 
1431	 12359.3777938066 
1432	 12340.8416220506 
1433	 12324.2428653651 
1434	 12310.8399892388 
1435	 12298.3820129184 
1436	 12290.6827589849 
1437	 12290.0713100056 
1438	 12287.3679186385 
1439	 12288.2023479365 
1440	 12284.672522105 
1441	 12282.6550213323 
1442	 12287.7309092302 
1443	 12293.6864339164 
1444	 12297.7470016319 
1445	 12302.2942291747 
1446	 12305.1421390342 
1447	 12310.7670036144 
1448	 12318.0642048072 
1449	 12326.279237848 
1450	 12336.1247128003 
1451	 12345.9344103259 
1452	 12355.9707845542 
1453	 12366.5448716832 
1454	 12376.375228972 
1455	 12390.1696250373 
1456	 12407.6550934813 
1457	 12423.0653766507 
1458	 12441.1628899076 
1459	 12456.0516256681 
1460	 12466.8327496691 
1461	 12480.3650232037 
1462	 12496.7935035474 
1463	 12509.597403965 
1464	 12517.0121603461 
1465	 12531.2025097957 
1466	 12545.5744465699 
1467	 12562.4943020188 
1468	 12584.4863186222 
1469	 12611.824974541 
1470	 12629.194389344 
1471	 12646.9919824178 
1472	 12668.7433362795 
1473	 12687.6854320926 
1474	 12710.0175402903 
1475	 12736.4410895456 
1476	 12761.1209880525 
1477	 12784.9830498426 
1478	 12810.1906863663 
1479	 12835.7503782947 
1480	 12864.9853300599 
1481	 12896.8902999719 
1482	 12926.3565415358 
1483	 12955.377322418 
1484	 12988.3002196754 
1485	 13023.9192241985 
1486	 13055.761359813 
1487	 13093.1479618506 
1488	 13123.0222735027 
1489	 13144.5480364321 
1490	 13166.9998250213 
1491	 13184.1863697576 
1492	 13207.2216890519 
1493	 13231.8041729906 
1494	 13256.4463465085 
1495	 13287.0562777618 
1496	 13313.9785033862 
1497	 13337.4318146983 
1498	 13361.7570232286 
1499	 13384.3779769979 
1500	 13408.6242587535 
1501	 13432.0876703172 
1502	 13459.3294990814 
1503	 13487.1460274448 
1504	 13516.4390707137 
1505	 13541.2415465252 
1506	 13566.6923054457 
1507	 13587.8112154429 
1508	 13603.4890730639 
1509	 13623.9616653521 
1510	 13643.5880152001 
1511	 13665.4501574868 
1512	 13692.0262073612 
1513	 13712.7376975931 
1514	 13731.0286493247 
1515	 13750.1824041879 
1516	 13765.8388252696 
1517	 13785.7862141653 
1518	 13807.4976489538 
1519	 13830.5104856314 
1520	 13859.3415026397 
1521	 13879.895747029 
1522	 13898.5078764276 
1523	 13915.3580269956 
1524	 13923.069277229 
1525	 13938.0854530266 
1526	 13960.1275435173 
1527	 13974.6204469179 
1528	 13987.6250074427 
1529	 14000.0567753373 
1530	 14007.0716157741 
1531	 14015.5019065643 
1532	 14022.862630722 
1533	 14034.16798448 
1534	 14048.564810776 
1535	 14060.21677922 
1536	 14076.8341652895 
1537	 14087.928659527 
1538	 14089.6216243798 
1539	 14096.3929820998 
1540	 14103.1667845945 
1541	 14112.684430442 
1542	 14119.0717222919 
1543	 14128.8779321608 
1544	 14138.3000058565 
1545	 14146.5412223087 
1546	 14154.178872482 
1547	 14163.8411046512 
1548	 14172.0131126212 
1549	 14177.7103922655 
1550	 14183.8359155108 
1551	 14192.0915308564 
1552	 14196.7921495638 
1553	 14196.5498150903 
1554	 14202.2057121482 
1555	 14209.7919037101 
1556	 14216.3530558113 
1557	 14226.4975776912 
1558	 14232.0137988621 
1559	 14233.1392853534 
1560	 14238.1832229131 
1561	 14245.661160522 
1562	 14248.467977613 
1563	 14250.5054575779 
1564	 14252.1509758839 
1565	 14249.7292592161 
1566	 14248.8294318624 
1567	 14250.5898913607 
1568	 14249.53691262 
1569	 14246.7282901489 
1570	 14242.7563020878 
1571	 14234.8990611973 
1572	 14231.8435327972 
1573	 14231.3385277488 
1574	 14228.2289835897 
1575	 14225.6506453088 
1576	 14224.6933804481 
1577	 14225.0680468738 
1578	 14220.7603013322 
1579	 14216.6410609603 
1580	 14211.3879628058 
1581	 14197.5956787075 
1582	 14190.0132884743 
1583	 14188.5601482347 
1584	 14184.1804545901 
1585	 14178.5598506923 
1586	 14175.4084503726 
1587	 14176.7558147262 
1588	 14171.3779186836 
1589	 14162.304137291 
1590	 14155.7068513269 
1591	 14143.7294350245 
1592	 14134.4259386651 
1593	 14131.1758265035 
1594	 14125.7107483676 
1595	 14117.9400827531 
1596	 14110.6390339043 
1597	 14106.11290966 
1598	 14103.1493892833 
1599	 14098.7834046038 
1600	 14096.7759317815 
1601	 14090.833945063 
1602	 14084.3237419509 
1603	 14071.495589644 
1604	 14052.5700057546 
1605	 14040.8427054312 
1606	 14028.2372941841 
1607	 14014.0804134951 
1608	 14004.4392819472 
1609	 13991.1192444629 
1610	 13970.813385547 
1611	 13956.8777161167 
1612	 13946.909923527 
1613	 13935.6737452663 
1614	 13927.685852598 
1615	 13911.4115693052 
1616	 13893.3745935748 
1617	 13872.2586433312 
1618	 13843.8194931728 
1619	 13818.097237935 
1620	 13789.1679763403 
1621	 13768.2370950265 
1622	 13752.1311332357 
1623	 13730.3029614756 
1624	 13714.2381694213 
1625	 13689.6003809636 
1626	 13654.0640875469 
1627	 13625.5630047183 
1628	 13600.3358282642 
1629	 13569.3208861194 
1630	 13533.8836459505 
1631	 13505.1295226295 
1632	 13475.3198059314 
1633	 13448.0404411634 
1634	 13430.6383300488 
1635	 13403.5916511766 
1636	 13372.6408402332 
1637	 13338.9265271901 
1638	 13297.969807596 
1639	 13262.7606746066 
1640	 13226.6936866909 
1641	 13192.9063374424 
1642	 13165.3666923618 
1643	 13132.5283250554 
1644	 13098.6667297372 
1645	 13061.8337666608 
1646	 13019.8591623145 
1647	 12982.0470053643 
1648	 12943.5981261344 
1649	 12906.3123786061 
1650	 12873.0523798814 
1651	 12836.7801934804 
1652	 12799.841046637 
1653	 12760.2203824538 
1654	 12720.1672355431 
1655	 12676.6645991735 
1656	 12628.4241382592 
1657	 12582.5597129853 
1658	 12538.0084268223 
1659	 12488.212577725 
1660	 12436.2943271633 
1661	 12383.0859478998 
1662	 12323.5053625232 
1663	 12267.6457686667 
1664	 12213.0230182742 
1665	 12160.1628699742 
1666	 12107.7530597026 
1667	 12057.1473356109 
1668	 12008.1059638262 
1669	 11961.0472268516 
1670	 11916.3065846047 
1671	 11872.1297166897 
1672	 11827.6230708125 
1673	 11787.7854394055 
1674	 11754.7890833837 
1675	 11714.2928928038 
1676	 11674.7991141774 
1677	 11632.8661642055 
1678	 11582.4007806179 
1679	 11537.3571272872 
1680	 11496.6546992321 
1681	 11452.6707523829 
1682	 11407.2937606612 
1683	 11362.3428171935 
1684	 11316.8196633704 
1685	 11270.6041538393 
1686	 11225.6811394043 
1687	 11177.690387402 
1688	 11124.9121119278 
1689	 11077.3212902204 
1690	 11030.3132746785 
1691	 10984.9436533113 
1692	 10944.5002949542 
1693	 10901.1272124471 
1694	 10856.8396794261 
1695	 10811.567253782 
1696	 10766.1568859667 
1697	 10719.3776163593 
1698	 10666.4937004675 
1699	 10622.8832029969 
1700	 10584.4960328396 
1701	 10544.2852172423 
1702	 10510.710279958 
1703	 10472.4335103708 
1704	 10430.8525663026 
1705	 10388.0154273628 
1706	 10341.6121645697 
1707	 10299.722683191 
1708	 10255.6793572146 
1709	 10216.6979951552 
1710	 10188.616387888 
1711	 10149.1326787543 
1712	 10104.8038472324 
1713	 10063.2074703184 
1714	 10015.2981623154 
1715	 9972.44852104849 
1716	 9934.57859128868 
1717	 9896.3918480686 
1718	 9860.50087978929 
1719	 9820.53900155798 
1720	 9781.73761452982 
1721	 9737.80757497725 
1722	 9685.32873289369 
1723	 9640.48515169977 
1724	 9597.0347885827 
1725	 9555.4073791943 
1726	 9518.92723353253 
1727	 9477.44418079377 
1728	 9433.78004393332 
1729	 9392.01604525785 
1730	 9345.95770801904 
1731	 9309.6515260011 
1732	 9282.09740577911 
1733	 9246.27287617664 
1734	 9212.82550760199 
1735	 9175.7166167672 
1736	 9133.12392978883 
1737	 9090.28307367502 
1738	 9046.47193134449 
1739	 9005.45481839569 
1740	 8959.44036422205 
1741	 8921.99291064691 
1742	 8891.94778657555 
1743	 8860.59319382533 
1744	 8834.83416771135 
1745	 8797.56589988023 
1746	 8758.64305641834 
1747	 8715.99449095755 
1748	 8667.56990949663 
1749	 8622.90879574572 
1750	 8581.44422752413 
1751	 8535.60517253926 
1752	 8495.12804334299 
1753	 8457.19059950534 
1754	 8416.86826452446 
1755	 8378.39025481902 
1756	 8340.81954832895 
1757	 8304.96477942967 
1758	 8261.62661515802 
1759	 8212.55530558589 
1760	 8165.26453913069 
1761	 8120.12557204964 
1762	 8081.23452688893 
1763	 8044.20479554664 
1764	 8006.05039986776 
1765	 7966.78188592688 
1766	 7923.89880894055 
1767	 7876.0546026759 
1768	 7835.44899618544 
1769	 7794.81049266632 
1770	 7750.43686313894 
1771	 7716.6049601914 
1772	 7678.3484694457 
1773	 7639.45799009492 
1774	 7603.65401710357 
1775	 7566.16325386069 
1776	 7527.9239401023 
1777	 7489.26796613358 
1778	 7453.24779153937 
1779	 7415.21744808502 
1780	 7382.13494508178 
1781	 7343.68615550362 
1782	 7308.34370377737 
1783	 7277.6124988258 
1784	 7242.00462935213 
1785	 7205.38355427673 
1786	 7169.06063150877 
1787	 7130.63517933583 
1788	 7093.45903440653 
1789	 7058.7106514091 
1790	 7021.5882803263 
1791	 6981.64267309494 
1792	 6942.99916943249 
1793	 6903.92233458421 
1794	 6862.5376749264 
1795	 6820.90621257169 
1796	 6777.38157631672 
1797	 6738.90223534432 
1798	 6696.19392509093 
1799	 6651.12530964907 
1800	 6610.6543100019 
1801	 11641.9657418098 
1802	 11785.7754615012 
1803	 11920.9308171519 
1804	 12070.5263541239 
1805	 12198.0593494419 
1806	 12297.340907458 
1807	 12398.60936688 
1808	 12491.4188878178 
1809	 12560.4459940036 
1810	 12636.6770115216 
1811	 12719.5649465331 
1812	 12790.2579402035 
1813	 12851.8794454409 
1814	 12908.62243317 
1815	 12956.3729323926 
1816	 13000.0387279218 
1817	 13033.956165947 
1818	 13077.0014511371 
1819	 13128.6832415549 
1820	 13189.8860016042 
1821	 13251.6047389393 
1822	 13328.6652344621 
1823	 13389.1521874171 
1824	 13443.4664212735 
1825	 13500.1481723383 
1826	 13543.9557315315 
1827	 13592.0966036432 
1828	 13639.9197459079 
1829	 13693.8979885348 
1830	 13730.6522961711 
1831	 13766.7902359006 
1832	 13793.3184449046 
1833	 13771.9173195818 
1834	 13754.3998287564 
1835	 13731.3704770352 
1836	 13709.3968221905 
1837	 13721.8186111104 
1838	 13753.3402097446 
1839	 13817.4439221217 
1840	 13944.8367820499 
1841	 14017.4934248965 
1842	 14098.511592213 
1843	 14180.7994632071 
1844	 14180.3256211397 
1845	 14173.2113686194 
1846	 14195.9338077316 
1847	 14207.1228443319 
1848	 14242.8007500952 
1849	 14330.2835714903 
1850	 14364.7668498169 
1851	 14388.3204359418 
1852	 14403.6021429079 
1853	 14388.29015908 
1854	 14346.9101485172 
1855	 14303.5511784247 
1856	 14268.4372534772 
1857	 14217.1822445898 
1858	 14177.1761013257 
1859	 14148.1239980587 
1860	 14148.9064579956 
1861	 14098.3393333262 
1862	 14055.3219294307 
1863	 13975.8529186979 
1864	 13821.5340850734 
1865	 13639.9467403544 
1866	 13377.4670049207 
1867	 13090.9347092769 
1868	 12798.2994774402 
1869	 12502.7781118841 
1870	 12271.918432645 
1871	 12082.8692777363 
1872	 11927.4624050122 
1873	 11819.5568401302 
1874	 11743.4302710684 
1875	 11681.1183723459 
1876	 11621.3879217505 
1877	 11551.018264848 
1878	 11462.9824247295 
1879	 11326.0151154579 
1880	 11157.7412423298 
1881	 10972.0901412974 
1882	 10749.1611686473 
1883	 10510.3752963571 
1884	 10286.3482889627 
1885	 10067.0619104078 
1886	 9855.7179744426 
1887	 9648.69173493808 
1888	 9426.56167363475 
1889	 9218.45335232196 
1890	 9036.44879840539 
1891	 8863.19035693023 
1892	 8701.7342979191 
1893	 8570.19853621191 
1894	 8433.76713805233 
1895	 8274.41854856068 
1896	 8121.72901537996 
1897	 7956.81967099923 
1898	 7793.76559425783 
1899	 7660.87039429631 
1900	 7541.75047036466 
1901	 7428.61518060276 
1902	 7329.73519713333 
1903	 7247.27110231013 
1904	 7176.13596400387 
1905	 7109.25437866862 
1906	 7071.73094075605 
1907	 7055.23831255282 
1908	 7036.29542142797 
1909	 7020.84388941869 
1910	 6994.38026934268 
1911	 6963.32181177154 
1912	 6931.30017498555 
1913	 6898.13507563256 
1914	 6861.63713943587 
1915	 6833.0640231187 
1916	 6794.95962340011 
1917	 6751.6598838768 
1918	 6720.72841416403 
1919	 6692.51137601441 
1920	 6677.13035082273 
1921	 6684.84006319741 
1922	 6695.62342063132 
1923	 6708.98811859309 
1924	 6720.76007870537 
1925	 6739.25157510223 
1926	 6744.04257063677 
1927	 6748.32755295078 
1928	 6756.35793056427 
1929	 6765.25798242432 
1930	 6788.448392768 
1931	 6806.4791148772 
1932	 6811.59645045377 
1933	 6813.13042081932 
1934	 6810.77128507135 
1935	 6816.00064947378 
1936	 6820.83627837265 
1937	 6836.25792677553 
1938	 6859.2169642034 
1939	 6885.0360904623 
1940	 6902.96644650679 
1941	 6925.34294663782 
1942	 6949.85668900197 
1943	 6959.27475005051 
1944	 6981.21750596538 
1945	 7010.00909635403 
1946	 7030.52957885788 
1947	 7049.2164406231 
1948	 7070.75139837628 
1949	 7089.96526907473 
1950	 7104.6336736323 
1951	 7128.23692715024 
1952	 7151.47457011881 
1953	 7175.10566296606 
1954	 7195.58536536128 
1955	 7210.77308776457 
1956	 7222.60440899802 
1957	 7239.06131434567 
1958	 7264.43444090166 
1959	 7285.66383394167 
1960	 7308.78566574504 
1961	 7334.84905617773 
1962	 7357.16630307144 
1963	 7374.03025831763 
1964	 7400.58325277087 
1965	 7432.25913657365 
1966	 7463.44272727407 
1967	 7496.62078710753 
1968	 7524.52198630674 
1969	 7545.75670229662 
1970	 7564.11485534519 
1971	 7573.72458723163 
1972	 7587.37357418589 
1973	 7597.56834295208 
1974	 7612.96848758884 
1975	 7631.74015207191 
1976	 7656.5673107238 
1977	 7681.13573485162 
1978	 7702.28930038779 
1979	 7723.4165948235 
1980	 7739.43676926942 
1981	 7749.06405662878 
1982	 7769.40607152381 
1983	 7786.81910643836 
1984	 7797.48045943994 
1985	 7818.93681985267 
1986	 7853.91342511867 
1987	 7872.52342678314 
1988	 7886.80370364562 
1989	 7913.35926720641 
1990	 7930.91227941825 
1991	 7951.60142983299 
1992	 7977.32449654062 
1993	 8004.72406458173 
1994	 8027.46441112088 
1995	 8042.03012839711 
1996	 8061.80508835955 
1997	 8087.51157263823 
1998	 8104.60699722707 
1999	 8117.27833324112 
2000	 8132.19520744291 
2001	 8144.564992333 
2002	 8150.45048768756 
2003	 8167.22178434291 
2004	 8187.98310646663 
2005	 8196.65407687465 
2006	 8211.76909252926 
2007	 8228.85679625799 
2008	 8241.52682971082 
2009	 8259.81596023651 
2010	 8294.95283366071 
2011	 8311.81007379214 
2012	 8320.45030792641 
2013	 8327.29101271261 
2014	 8334.10759803654 
2015	 8335.2911535167 
2016	 8336.05095019316 
2017	 8340.46390773557 
2018	 8342.67691307012 
2019	 8343.76511368199 
2020	 8347.92086545747 
2021	 8359.37513879421 
2022	 8365.64021599611 
2023	 8368.7993718216 
2024	 8371.82656748964 
2025	 8376.49886203774 
2026	 8376.34241022401 
2027	 8370.0439000667 
2028	 8373.97705770416 
2029	 8382.81763923873 
2030	 8395.95596990956 
2031	 8395.62220348302 
2032	 8384.96328257302 
2033	 8380.41456608713 
2034	 8360.9927268816 
2035	 8356.02041810421 
2036	 8371.51888905095 
2037	 8372.79569545314 
2038	 8369.64812425716 
2039	 8360.10656335849 
2040	 8345.03330568571 
2041	 8326.22078379239 
2042	 8304.19151573751 
2043	 8288.04743451699 
2044	 8274.53433223639 
2045	 8268.3710677589 
2046	 8256.11688510913 
2047	 8251.3156689318 
2048	 8242.06463141118 
2049	 8226.23856107517 
2050	 8216.46151582161 
2051	 8211.13304640036 
2052	 8201.13692835904 
2053	 8189.11779480732 
2054	 8185.37084293198 
2055	 8178.39817866677 
2056	 8170.75038198692 
2057	 8169.3865329836 
2058	 8159.93196278986 
2059	 8146.02038028915 
2060	 8133.47265460484 
2061	 8129.93682063979 
2062	 8139.35936360603 
2063	 8139.4313961113 
2064	 8143.65417325082 
2065	 8135.91750973986 
2066	 8110.88041485852 
2067	 8094.27080361276 
2068	 8069.68223128131 
2069	 8066.8775745094 
2070	 8066.09587450686 
2071	 8069.0933700556 
2072	 8068.2287707751 
2073	 8061.47222887655 
2074	 8060.78833204589 
2075	 8057.96899227659 
2076	 8054.45973727874 
2077	 8057.35944859379 
2078	 8052.22977380596 
2079	 8035.49035157896 
2080	 8029.06499174041 
2081	 8024.67801295075 
2082	 8020.52924872165 
2083	 8020.37158157656 
2084	 8022.61347158264 
2085	 8015.20112187415 
2086	 8016.81284963779 
2087	 8013.34112522382 
2088	 8000.16877014227 
2089	 7997.0459776549 
2090	 7993.9801895583 
2091	 7986.01317789763 
2092	 7989.87490514761 
2093	 7990.32316042028 
2094	 7989.57194382471 
2095	 7985.22088589635 
2096	 7979.42575449118 
2097	 7977.13273956216 
2098	 7971.8725466695 
2099	 7969.11987033187 
2100	 7969.0838829816 
2101	 7977.61379927239 
2102	 7973.83599841742 
2103	 7971.99391967854 
2104	 7972.29445098067 
2105	 7955.52983317428 
2106	 7946.88157854009 
2107	 7952.03842120475 
2108	 7947.28749173951 
2109	 7943.03457060797 
2110	 7937.49221626863 
2111	 7921.69047021582 
2112	 7916.07024482659 
2113	 7917.88832665566 
2114	 7918.63226843686 
2115	 7926.92887853586 
2116	 7925.79154224854 
2117	 7918.28949872652 
2118	 7914.48260446001 
2119	 7903.2356331484 
2120	 7902.97094899459 
2121	 7903.28205667731 
2122	 7903.69659386444 
2123	 7912.94539515684 
2124	 7905.61883891625 
2125	 7907.05689490687 
2126	 7918.68122476092 
2127	 7913.36744444288 
2128	 7900.88010569679 
2129	 7892.76419273256 
2130	 7869.89516211213 
2131	 7860.84998032759 
2132	 7864.96652526666 
2133	 7861.43686735972 
2134	 7858.85165558447 
2135	 7858.2655648803 
2136	 7846.10727095669 
2137	 7833.64996901432 
2138	 7828.27886138725 
2139	 7821.78710780034 
2140	 7812.51715908581 
2141	 7812.51004884552 
2142	 7813.21966260833 
2143	 7807.98024443111 
2144	 7804.51166676384 
2145	 7804.92117082298 
2146	 7799.86553065696 
2147	 7793.55326538289 
2148	 7782.3766988975 
2149	 7763.57261392142 
2150	 7753.20608444885 
2151	 7743.43126081205 
2152	 7733.26532663752 
2153	 7720.15442521108 
2154	 7712.35334559799 
2155	 7703.00086859961 
2156	 7687.7382654991 
2157	 7683.39124341498 
2158	 7680.08355767838 
2159	 7668.46323492789 
2160	 7666.93912410503 
2161	 7658.70544969451 
2162	 7645.67872960689 
2163	 7639.27810067673 
2164	 7633.06373404091 
2165	 7625.12960953217 
2166	 7622.26940288043 
2167	 7614.43712527182 
2168	 7603.28420539867 
2169	 7593.09841856841 
2170	 7582.45846420181 
2171	 7575.43903554679 
2172	 7575.54096344462 
2173	 7558.36427481677 
2174	 7544.86304894309 
2175	 7523.08405381836 
2176	 7504.53072439925 
2177	 7493.69704756897 
2178	 7483.29375510305 
2179	 7481.09567858488 
2180	 7466.82652312456 
2181	 7452.06030752442 
2182	 7440.48560312821 
2183	 7431.85734512664 
2184	 7414.78627990214 
2185	 7398.14816267254 
2186	 7378.40627357103 
2187	 7345.16130060579 
2188	 7324.54927664975 
2189	 7308.51408469898 
2190	 7294.29405382791 
2191	 7288.21740300282 
2192	 7279.3270401968 
2193	 7259.19716686723 
2194	 7241.50192115921 
2195	 7214.10872073691 
2196	 7189.18640247836 
2197	 7177.68257137599 
2198	 7158.37293971391 
2199	 7134.32762621822 
2200	 7121.78232938923 
2201	 7102.34365362367 
2202	 7073.35826064602 
2203	 7045.16733000757 
2204	 7017.90338508832 
2205	 6996.96974214148 
2206	 6982.57704976588 
2207	 6960.73462473587 
2208	 6944.29525181033 
2209	 6918.41489033319 
2210	 6877.21060124878 
2211	 6852.19888915388 
2212	 6833.15416765629 
2213	 6809.97498326681 
2214	 6792.2681963196 
2215	 6772.33698482626 
2216	 6741.51140387307 
2217	 6716.55883279118 
2218	 6695.31604196982 
2219	 6665.98166591323 
2220	 6640.60063530438 
2221	 6609.89825781499 
2222	 6571.77177509223 
2223	 6546.75411081916 
2224	 6515.00584792073 
2225	 6488.31507809044 
2226	 6476.63150918086 
2227	 6451.29714385571 
2228	 6425.27601811993 
2229	 6403.21145812725 
2230	 6370.35969646406 
2231	 6326.5322234793 
2232	 6288.48983292134 
2233	 6246.30607931591 
2234	 6207.63189643633 
2235	 6172.52515707782 
2236	 6132.4222151701 
2237	 6090.74646975883 
2238	 6050.00883572211 
2239	 6005.95587446848 
2240	 5967.60997350647 
2241	 5925.61825255907 
2242	 5881.01912906683 
2243	 5835.8317963679 
2244	 5783.00254825435 
2245	 5735.25587035552 
2246	 5693.39299059363 
2247	 5645.54075844857 
2248	 5597.86271008866 
2249	 5554.659645312 
2250	 5500.61633661274 
2251	 5450.74500388698 
2252	 5414.82714895949 
2253	 5370.63967334576 
2254	 5322.5681455584 
2255	 5278.41285904967 
2256	 5234.06335420055 
2257	 5188.12726837199 
2258	 5145.33307531114 
2259	 5102.49013824582 
2260	 5060.71938376688 
2261	 5014.37942280779 
2262	 4963.81534405935 
2263	 4916.97437701347 
2264	 4864.53182137819 
2265	 4819.77876465471 
2266	 4784.85412380971 
2267	 4744.31652696854 
2268	 4703.53495732835 
2269	 4665.06065402871 
2270	 4619.21581864459 
2271	 4579.65154431296 
2272	 4544.62798795527 
2273	 4509.90438012414 
2274	 4482.5048897091 
2275	 4448.86977227541 
2276	 4418.93416961924 
2277	 4395.10475957081 
2278	 4366.06493847761 
2279	 4340.81064460712 
2280	 4311.28856521919 
2281	 4276.18979942041 
2282	 4244.55643343842 
2283	 4210.85745308077 
2284	 4186.40275334291 
2285	 4167.02395561495 
2286	 4145.92075515349 
2287	 4126.00078000926 
2288	 4092.03807580503 
2289	 4039.57529840711 
2290	 4000.08800842141 
2291	 3957.56691611998 
2292	 3916.50238373827 
2293	 3881.26821074767 
2294	 3851.65421444243 
2295	 3823.47815179964 
2296	 3792.0202043261 
2297	 3773.24086010029 
2298	 3733.49466723938 
2299	 3668.81354637549 
2300	 3623.80252139213 
2301	 3577.53393721415 
2302	 3541.71183308851 
2303	 3521.66723527801 
2304	 3501.5565437348 
2305	 3469.83376999296 
2306	 3433.00006225998 
2307	 3393.57880774191 
2308	 3358.0483947768 
2309	 3327.93786027715 
2310	 3299.56996408076 
2311	 3271.80712038006 
2312	 3240.9478693731 
2313	 3206.93695654098 
2314	 3175.12368466687 
2315	 3144.4827082655 
2316	 3113.65703868661 
2317	 3097.29013513904 
2318	 3087.81175741367 
2319	 3062.08793866107 
2320	 3041.19512769239 
2321	 3020.57473153859 
2322	 2985.69013492498 
2323	 2967.04163567392 
2324	 2951.37237094555 
2325	 2913.51026627025 
2326	 2872.85260445389 
2327	 2837.69988536542 
2328	 2788.32834132975 
2329	 2745.34874028119 
2330	 2724.32839768529 
2331	 2701.21244797218 
2332	 2681.52851957154 
2333	 2660.28434651924 
2334	 2643.66435035403 
2335	 2620.53969395801 
2336	 2595.28666830293 
2337	 2569.50552042435 
2338	 2541.98727583852 
2339	 2514.12189178628 
2340	 2480.414845785 
2341	 2449.63510653396 
2342	 2421.68169951197 
2343	 2393.42186083883 
2344	 2366.77368874396 
2345	 2339.71760320919 
2346	 2310.91378508701 
2347	 2286.8794629052 
2348	 2269.08688802893 
2349	 2239.63048379025 
2350	 2213.7154721747 
2351	 2190.47365101283 
2352	 2165.86947887621 
2353	 2147.44765665394 
2354	 2129.6858742379 
2355	 2115.34532423514 
2356	 2096.17328910879 
2357	 2080.9781636758 
2358	 2069.92118891183 
2359	 2049.0579133552 
2360	 2035.30337188192 
2361	 2013.98351531845 
2362	 1982.3505843761 
2363	 1955.23128262747 
2364	 1923.54400635197 
2365	 1900.18085589726 
2366	 1884.403442434 
2367	 1857.1612409508 
2368	 1834.6683005191 
2369	 1809.98298394414 
2370	 1785.35722683705 
2371	 1785.04722463377 
2372	 1769.53173250121 
2373	 1750.35846738311 
2374	 1749.54157160725 
2375	 1729.14091655914 
2376	 1703.98246486411 
2377	 1687.73896083486 
2378	 1655.07691278107 
2379	 1617.29155766623 
2380	 1594.82223721971 
2381	 1569.19482562866 
2382	 1543.55750209737 
2383	 1530.94099798362 
2384	 1524.75012111917 
2385	 1515.30580722856 
2386	 1498.17499396573 
2387	 1480.63147743087 
2388	 1456.34875928097 
2389	 1433.76326688373 
2390	 1423.62084383861 
2391	 1411.74392554172 
2392	 1395.4213275561 
2393	 1380.09929776671 
2394	 1363.81505256535 
2395	 1343.2063574393 
2396	 1321.27601292797 
2397	 1306.07723965298 
2398	 1290.63615143385 
2399	 1269.77332480324 
2400	 1251.19496918316 
2401	 1233.71198595794 
2402	 1217.04274058198 
2403	 1205.01250461119 
2404	 1194.32300748253 
2405	 1174.33776991407 
2406	 1156.14822358708 
2407	 1145.31028785385 
2408	 1131.03410523026 
2409	 1123.81044130539 
2410	 1103.16085537625 
2411	 1062.32046292367 
2412	 1040.54472681584 
2413	 1024.28768032885 
2414	 1006.5752258515 
2415	 1014.54393879579 
2416	 1020.77596428922 
2417	 1009.50444735966 
2418	 1006.25969432742 
2419	 997.026875757142 
2420	 972.798255598456 
2421	 962.72688021626 
2422	 957.25512216835 
2423	 942.403748139984 
2424	 933.17403042169 
2425	 915.191230984913 
2426	 890.614043746741 
2427	 881.684850282645 
2428	 861.791866411865 
2429	 836.800521940945 
2430	 834.315623524396 
2431	 819.191045906574 
2432	 802.846658697419 
2433	 802.0468123937 
2434	 779.278517279714 
2435	 751.448854092361 
2436	 737.754440654419 
2437	 728.257128023801 
2438	 726.998586096937 
2439	 731.161233476005 
2440	 726.25301639877 
2441	 709.382098143429 
2442	 697.107672380427 
2443	 680.273863464556 
2444	 662.637180440188 
2445	 660.592131020042 
2446	 651.354339239715 
2447	 640.387206674657 
2448	 632.001707605269 
2449	 619.220054512366 
2450	 608.665240506835 
2451	 597.082963128266 
2452	 590.256385041673 
2453	 596.410893333647 
2454	 598.953336703686 
2455	 592.460703059929 
2456	 590.490760438235 
2457	 567.908444998774 
2458	 543.636411437581 
2459	 533.632431154507 
2460	 524.554421416679 
2461	 532.845681475239 
2462	 531.378222021819 
2463	 524.119851276136 
2464	 515.731874176654 
2465	 488.911801391097 
2466	 479.570959142864 
2467	 478.594502157802 
2468	 463.257818849744 
2469	 452.914532553459 
2470	 447.084747003992 
2471	 437.970534311346 
2472	 431.046099529226 
2473	 433.837423089025 
2474	 427.038948268503 
2475	 415.087176373952 
2476	 423.736042504077 
2477	 423.822070530464 
2478	 420.028012506601 
2479	 425.740021054788 
2480	 425.534693497508 
2481	 426.800765854751 
2482	 420.691344158387 
2483	 402.644346809852 
2484	 377.787084116177 
2485	 363.204933144838 
2486	 355.601378062249 
2487	 348.807046717244 
2488	 353.440333406829 
2489	 345.3076528119 
2490	 336.204304024317 
2491	 342.518102191007 
2492	 344.577130545908 
2493	 344.418731238122 
2494	 346.851133779175 
2495	 337.875649658777 
2496	 319.13100969759 
2497	 305.723033027359 
2498	 293.955653122576 
2499	 295.133311394768 
2500	 298.585045050757 
