Wavelength	spectrum00004.asd
350	 16.5503638476583 
351	 16.7297939223833 
352	 17.138809842242 
353	 17.6828662511552 
354	 18.0970721703294 
355	 19.0094877763803 
356	 19.9042021734157 
357	 21.4296565253915 
358	 24.8430136687095 
359	 24.4629849546783 
360	 24.4130378064656 
361	 27.4212407515301 
362	 29.2108202682117 
363	 29.477472950886 
364	 30.2776733477221 
365	 33.9518610915505 
366	 36.788503970005 
367	 39.186535440452 
368	 40.7678461045898 
369	 39.889502864831 
370	 42.3591830954668 
371	 45.6467165643234 
372	 46.794043706071 
373	 48.935936202841 
374	 50.6114822813022 
375	 52.3674428495666 
376	 55.8120263795 
377	 59.2188050465586 
378	 60.8949113789923 
379	 61.095739886368 
380	 63.617513355808 
381	 66.7751361394127 
382	 70.3096322450465 
383	 73.9632717664476 
384	 75.1813734379738 
385	 77.2741578153891 
386	 81.0160673375595 
387	 84.183999306454 
388	 87.4876372808044 
389	 90.2539136477528 
390	 92.1966749356129 
391	 94.8495312830708 
392	 98.0077487186364 
393	 101.392954013719 
394	 104.611844730233 
395	 106.94974093516 
396	 109.559089057232 
397	 113.288731512083 
398	 118.162650184452 
399	 122.389600487478 
400	 125.58304579493 
401	 128.41945735525 
402	 133.830408702052 
403	 139.258990327608 
404	 143.988991563897 
405	 149.500391092655 
406	 155.375967590971 
407	 160.539736058867 
408	 164.730753141395 
409	 170.567278711669 
410	 176.56781830669 
411	 182.425760468645 
412	 188.667355094356 
413	 196.670268801046 
414	 205.029227105061 
415	 212.521877884925 
416	 218.751758548424 
417	 226.685650595448 
418	 235.682026473335 
419	 244.079187262369 
420	 252.886565614951 
421	 262.703223764431 
422	 272.754503245888 
423	 280.816237860193 
424	 291.353670851662 
425	 303.151716145627 
426	 314.329735728745 
427	 325.980090781485 
428	 336.66661218831 
429	 346.908096837482 
430	 358.48385768784 
431	 370.109096876097 
432	 382.701963323661 
433	 396.260986107281 
434	 408.077042234496 
435	 419.294683369664 
436	 431.089294239843 
437	 444.171397540334 
438	 455.332439668778 
439	 466.704948494139 
440	 479.653476251892 
441	 493.933340944805 
442	 505.693277626507 
443	 516.451012623889 
444	 528.407202634512 
445	 539.277924593925 
446	 549.355174017616 
447	 559.462443897722 
448	 570.643514389349 
449	 579.171680397527 
450	 588.238295029726 
451	 599.693088505663 
452	 608.016321252877 
453	 615.199789681124 
454	 622.525760410658 
455	 630.649196407194 
456	 637.133323565086 
457	 643.761242551787 
458	 650.835926570875 
459	 654.918116128835 
460	 658.824603300793 
461	 663.415081651332 
462	 668.522914969304 
463	 672.145455092976 
464	 677.080495266773 
465	 682.986915747393 
466	 685.487540458396 
467	 689.881366802849 
468	 694.869134052776 
469	 698.546503778935 
470	 703.376068393546 
471	 708.153711028251 
472	 712.841025294956 
473	 718.27951676866 
474	 723.308553595379 
475	 728.337814389218 
476	 733.861926485962 
477	 740.003745154097 
478	 745.425769122439 
479	 750.653918666487 
480	 757.048810610206 
481	 764.063674982257 
482	 770.285973647004 
483	 775.703617530806 
484	 782.988234752361 
485	 788.129640218019 
486	 793.610574231323 
487	 802.594520372543 
488	 808.951551355092 
489	 814.773456520065 
490	 821.305644620357 
491	 828.254417145351 
492	 835.458656664537 
493	 843.977168648584 
494	 854.119557680766 
495	 862.288372681244 
496	 872.138653717108 
497	 883.910785020443 
498	 895.238214523184 
499	 908.359376758417 
500	 922.155862282621 
501	 935.435228038561 
502	 947.938434912132 
503	 962.774008373444 
504	 979.180249777995 
505	 994.721498874795 
506	 1011.95674378112 
507	 1029.21549302764 
508	 1047.07231539081 
509	 1071.07658956115 
510	 1094.25948448826 
511	 1117.48050328805 
512	 1143.70920533426 
513	 1171.08449896734 
514	 1199.16541779052 
515	 1228.28805171591 
516	 1259.59559486314 
517	 1294.43424161965 
518	 1330.90671687506 
519	 1367.5291262874 
520	 1407.88447964143 
521	 1449.69244456799 
522	 1492.03636133863 
523	 1535.26351288226 
524	 1580.51144485778 
525	 1625.66662399454 
526	 1669.50819096118 
527	 1714.52630480278 
528	 1760.89936998402 
529	 1807.84154318776 
530	 1853.74909118895 
531	 1895.60995828276 
532	 1938.56111470145 
533	 1984.6448667735 
534	 2028.64281024347 
535	 2071.35724658876 
536	 2113.22259507537 
537	 2154.29045060902 
538	 2191.78947249701 
539	 2230.25507889575 
540	 2269.85928055265 
541	 2304.79273059066 
542	 2342.48401570851 
543	 2380.41363187295 
544	 2415.64147198634 
545	 2454.82691629386 
546	 2492.25532481178 
547	 2528.11178943466 
548	 2567.48144206834 
549	 2604.8112650088 
550	 2639.50732316089 
551	 2672.65088563861 
552	 2707.46046286156 
553	 2738.75364481636 
554	 2767.01244311583 
555	 2795.42000266607 
556	 2819.81150394673 
557	 2840.54026557878 
558	 2858.8480934155 
559	 2876.78836832549 
560	 2890.38366769093 
561	 2900.14859660966 
562	 2907.73679157244 
563	 2910.31944440914 
564	 2909.44138030324 
565	 2906.30168487266 
566	 2901.25269790837 
567	 2893.43327620473 
568	 2883.69604736187 
569	 2873.18211165164 
570	 2861.51716418867 
571	 2852.88872087576 
572	 2848.77069299374 
573	 2847.98363308869 
574	 2848.01651444049 
575	 2848.82601937977 
576	 2851.59512897644 
577	 2859.32597334125 
578	 2868.81883972081 
579	 2880.80625964828 
580	 2897.71237683243 
581	 2916.61771375806 
582	 2932.65727779995 
583	 2944.36713063805 
584	 2957.01922884286 
585	 2965.1186036535 
586	 2969.40759193979 
587	 2972.83644604074 
588	 2976.181466405 
589	 2979.92324539472 
590	 2983.22207453335 
591	 2983.74728792547 
592	 2984.0357889233 
593	 2982.333493309 
594	 2977.241998472 
595	 2972.6724910553 
596	 2968.18468267419 
597	 2964.60215124434 
598	 2963.57337108148 
599	 2962.53763887445 
600	 2961.7083370564 
601	 2961.66594638781 
602	 2962.88430870334 
603	 2962.68249976044 
604	 2960.45540824302 
605	 2956.94052003997 
606	 2953.61663621607 
607	 2951.05039079751 
608	 2948.44704133516 
609	 2942.88122351656 
610	 2938.36260616475 
611	 2935.41886804036 
612	 2932.79175800082 
613	 2926.787885191 
614	 2920.96175878976 
615	 2917.04455863059 
616	 2914.4212219823 
617	 2913.7275796452 
618	 2913.53197334404 
619	 2913.36774982232 
620	 2917.52766289017 
621	 2921.29767405682 
622	 2925.17494304426 
623	 2932.64091198226 
624	 2938.8269091769 
625	 2946.22180186911 
626	 2956.46406599127 
627	 2967.62208535953 
628	 2977.08954819361 
629	 2985.61188003407 
630	 2995.02435652507 
631	 3003.9314983017 
632	 3011.29651250714 
633	 3016.66519434239 
634	 3020.30381891808 
635	 3019.95203008574 
636	 3017.51493753053 
637	 3015.15314443411 
638	 3011.47792874151 
639	 3006.35111685762 
640	 3000.12498404643 
641	 2993.52984593427 
642	 2986.89859836185 
643	 2979.50820087418 
644	 2971.84245234292 
645	 2967.92304478059 
646	 2963.11576580397 
647	 2958.22282609169 
648	 2956.09644950086 
649	 2955.26215072823 
650	 2957.33697738584 
651	 2961.57764432354 
652	 2963.66280656497 
653	 2968.43998302731 
654	 2974.78194914672 
655	 2980.71607010606 
656	 2988.18002357981 
657	 2994.77204103124 
658	 3001.75092223795 
659	 3012.82150446233 
660	 3019.45729407564 
661	 3027.17580709316 
662	 3039.93449712638 
663	 3052.39173322342 
664	 3063.96719051473 
665	 3076.37903033383 
666	 3092.06994965444 
667	 3108.79714368773 
668	 3127.84300076733 
669	 3148.42171478332 
670	 3166.55536425693 
671	 3190.11068259518 
672	 3215.52202497444 
673	 3238.64549001628 
674	 3265.88865590838 
675	 3293.67952774997 
676	 3321.97135450918 
677	 3353.24688243131 
678	 3384.62496938511 
679	 3416.87529647782 
680	 3451.07261514522 
681	 3487.50739050484 
682	 3527.84021368197 
683	 3570.36770756425 
684	 3613.05112012728 
685	 3660.68391956094 
686	 3712.10896921828 
687	 3767.15818295802 
688	 3827.31678899546 
689	 3895.8343390675 
690	 3972.38415605099 
691	 4056.85833738892 
692	 4152.58920290637 
693	 4260.58537878765 
694	 4382.58270475134 
695	 4520.67425787228 
696	 4676.17080477896 
697	 4849.80387840022 
698	 5041.59301312625 
699	 5250.58530452588 
700	 5479.34303345367 
701	 5724.14926009605 
702	 5980.61670776608 
703	 6251.61590145639 
704	 6534.25888109361 
705	 6824.97475389334 
706	 7120.23738237523 
707	 7423.79777518104 
708	 7733.83740227262 
709	 8049.32044993513 
710	 8373.23222611455 
711	 8704.09508429938 
712	 9040.42188246354 
713	 9381.07297021375 
714	 9727.65135021403 
715	 10079.1284698082 
716	 10434.5643643065 
717	 10793.3488964568 
718	 11154.216728879 
719	 11520.0495664962 
720	 11892.0122101361 
721	 12264.1989053533 
722	 12635.2166216568 
723	 13004.0778381964 
724	 13370.1645734447 
725	 13732.6405434755 
726	 14089.484813815 
727	 14442.3188682537 
728	 14797.8176166168 
729	 15144.8477576943 
730	 15486.0302310833 
731	 15824.2690829189 
732	 16149.7297189825 
733	 16470.579512259 
734	 16787.0624528491 
735	 17094.3950259194 
736	 17393.0286018025 
737	 17684.2898289444 
738	 17969.5935702087 
739	 18250.1839329822 
740	 18525.4557525349 
741	 18794.1951463856 
742	 19055.3476394848 
743	 19310.5245314972 
744	 19549.7551829678 
745	 19773.0561785919 
746	 19989.221445452 
747	 20215.3173681812 
748	 20437.5260831448 
749	 20650.4818127927 
750	 20871.1708234953 
751	 21081.174241112 
752	 21285.5646156797 
753	 21492.0951547818 
754	 21688.8368352846 
755	 21881.1775365327 
756	 22073.636046913 
757	 22268.4932085264 
758	 22456.3515134881 
759	 22633.6239396769 
760	 22803.1749927796 
761	 22976.4575701845 
762	 23153.0974512709 
763	 23330.5566361085 
764	 23504.0427293986 
765	 23665.0710993515 
766	 23820.9480715423 
767	 23972.7819390911 
768	 24117.9759249497 
769	 24263.6248974328 
770	 24403.0970640148 
771	 24539.865818842 
772	 24695.2535190279 
773	 24844.4931844748 
774	 24975.72790008 
775	 25085.1898446687 
776	 25181.3606360104 
777	 25268.6838330167 
778	 25347.4011501679 
779	 25416.9968492544 
780	 25493.1282265545 
781	 25563.7918558129 
782	 25623.5952747569 
783	 25679.409649253 
784	 25731.3053442706 
785	 25779.5143988491 
786	 25823.1674667476 
787	 25858.9314582053 
788	 25888.4118668555 
789	 25911.8599889937 
790	 25929.679237535 
791	 25946.6405186977 
792	 25957.2602334339 
793	 25961.7070239447 
794	 25966.0746427809 
795	 25965.9562162553 
796	 25960.8898186147 
797	 25950.7085844659 
798	 25934.3344785086 
799	 25913.7627281405 
800	 25886.0619569967 
801	 25848.6481534656 
802	 25808.3231612712 
803	 25755.8268197012 
804	 25696.6974716472 
805	 25645.1134060549 
806	 25590.0602071153 
807	 25531.5893360301 
808	 25471.9165202305 
809	 25414.315422847 
810	 25343.6505386854 
811	 25267.2770946426 
812	 25193.8262353348 
813	 25119.9220348805 
814	 25036.0227889286 
815	 24940.8541983086 
816	 24837.8832117107 
817	 24730.871073098 
818	 24621.9368209457 
819	 24511.0559037896 
820	 24396.7643065508 
821	 24283.4753088745 
822	 24166.2982078334 
823	 24042.7722889069 
824	 23916.7263278709 
825	 23788.8175651532 
826	 23659.5670527737 
827	 23528.2420368613 
828	 23390.2665680271 
829	 23254.9110503017 
830	 23120.2764002586 
831	 22980.1252772976 
832	 22838.716744301 
833	 22693.732432117 
834	 22545.4432097628 
835	 22397.0133817034 
836	 22252.2106822291 
837	 22111.1676364599 
838	 21972.7344441265 
839	 21835.019917948 
840	 21697.8245629239 
841	 21563.5235706288 
842	 21431.9861151851 
843	 21293.3705724233 
844	 21158.1656153721 
845	 21026.6219973776 
846	 20895.1410983083 
847	 20765.7411849954 
848	 20637.6814181166 
849	 20510.6803500709 
850	 20385.1578016406 
851	 20264.1625265014 
852	 20141.3871343979 
853	 20015.5753701459 
854	 19893.2347342192 
855	 19767.9122650071 
856	 19639.6153171174 
857	 19511.5189884361 
858	 19390.1386501353 
859	 19274.4610962388 
860	 19162.3342469687 
861	 19049.9213574445 
862	 18930.7895711958 
863	 18803.4256321627 
864	 18673.9590382802 
865	 18550.0249850189 
866	 18422.5375512002 
867	 18292.1760125087 
868	 18161.3912415222 
869	 18033.05938738 
870	 17904.6863272213 
871	 17774.1148969613 
872	 17641.1357468291 
873	 17507.9956026418 
874	 17374.3104374524 
875	 17238.5780944261 
876	 17100.8207994289 
877	 16964.5965332115 
878	 16829.9638691482 
879	 16696.3140891239 
880	 16561.6266190531 
881	 16420.3430201659 
882	 16279.3316814902 
883	 16141.8503146907 
884	 16007.2987268684 
885	 15866.5952950127 
886	 15726.5914584405 
887	 15587.501579071 
888	 15445.3022003964 
889	 15304.1614069752 
890	 15163.3938370243 
891	 15023.7242101746 
892	 14886.8974336715 
893	 14744.0396707458 
894	 14600.9180979587 
895	 14461.2609620646 
896	 14322.5049745733 
897	 14182.8635981036 
898	 14044.0965241626 
899	 13907.4180684612 
900	 13771.2445940638 
901	 13636.8825731039 
902	 13501.7983450878 
903	 13364.1113352725 
904	 13226.0859572066 
905	 13093.5755936882 
906	 12963.7040847791 
907	 12831.9392752571 
908	 12701.910167385 
909	 12570.1444967845 
910	 12438.5861755379 
911	 12310.906828384 
912	 12184.4865223753 
913	 12059.2128873566 
914	 11933.4658608651 
915	 11805.7574698591 
916	 11681.8908314901 
917	 11560.4404824321 
918	 11439.9924803531 
919	 11319.6122900084 
920	 11196.7187219562 
921	 11075.9163489767 
922	 10957.7640357809 
923	 10837.7821048012 
924	 10718.245808017 
925	 10599.2888016603 
926	 10480.5464292014 
927	 10361.4685357795 
928	 10242.9541621997 
929	 10125.1875290782 
930	 10007.6046922715 
931	 9888.78168587215 
932	 9773.20176234949 
933	 9657.97102540493 
934	 9540.61998247526 
935	 9422.94732391428 
936	 9310.94734155838 
937	 9200.8305285868 
938	 9089.04168354858 
939	 8979.56293559295 
940	 8870.0303468093 
941	 8760.71226399382 
942	 8652.06189902889 
943	 8542.90714177225 
944	 8433.02502740615 
945	 8322.46146913196 
946	 8211.72087740976 
947	 8102.0612942641 
948	 7994.07535160201 
949	 7884.58892667092 
950	 7772.33593354483 
951	 7667.78829036992 
952	 7561.38286651347 
953	 7454.76692430499 
954	 7351.85627615367 
955	 7245.32977522504 
956	 7142.23218872207 
957	 7041.10151962089 
958	 6938.04139076008 
959	 6836.60994154265 
960	 6736.80045486582 
961	 6637.9485442471 
962	 6539.52664129971 
963	 6443.07589750614 
964	 6346.42676405 
965	 6250.82348270339 
966	 6157.8822516508 
967	 6062.81702976705 
968	 5968.94344420953 
969	 5877.4166757357 
970	 5787.42356359242 
971	 5695.64091983252 
972	 5606.74676302246 
973	 5519.43047758379 
974	 5430.69206693147 
975	 5344.77442554453 
976	 5260.90906855715 
977	 5177.01855873286 
978	 5091.81686618459 
979	 5009.50893413644 
980	 4927.41365574022 
981	 4845.44519038602 
982	 4765.43240348874 
983	 4691.52312276546 
984	 4613.49432501694 
985	 4533.85238150894 
986	 4458.54077098538 
987	 4382.49126020984 
988	 4308.95167800501 
989	 4235.33116145991 
990	 4159.50479244352 
991	 4089.17349721411 
992	 4018.22143649121 
993	 3947.96826864168 
994	 3880.36425148948 
995	 3810.47524946791 
996	 3741.77420082664 
997	 3675.6479089203 
998	 3611.41302460549 
999	 3545.06913845451 
1000	 3481.2874881352 
1001	 7521.16277984951 
1002	 7556.89840016585 
1003	 7597.32329697227 
1004	 7642.08975840939 
1005	 7697.68806698299 
1006	 7752.62557898052 
1007	 7805.48252903016 
1008	 7868.02066015937 
1009	 7923.69935676746 
1010	 7974.15111241926 
1011	 8026.53273541061 
1012	 8084.43579968819 
1013	 8140.2687599576 
1014	 8209.27551880833 
1015	 8290.21311639425 
1016	 8369.53275227484 
1017	 8456.89800026419 
1018	 8538.20016885628 
1019	 8618.84340701585 
1020	 8707.43786126135 
1021	 8795.66978237863 
1022	 8882.03970276935 
1023	 8965.88589999637 
1024	 9045.0826120617 
1025	 9125.66278081241 
1026	 9205.5103393234 
1027	 9282.07301152332 
1028	 9358.12412682053 
1029	 9434.94502437995 
1030	 9501.64066608216 
1031	 9561.52025923502 
1032	 9623.02704619066 
1033	 9676.90794957336 
1034	 9724.69879471336 
1035	 9777.24749392532 
1036	 9828.05954266627 
1037	 9862.72297942146 
1038	 9891.03200792583 
1039	 9917.69992595745 
1040	 9941.78326059177 
1041	 9957.55454851957 
1042	 9978.62337947544 
1043	 10000.1301197571 
1044	 10012.741153555 
1045	 10020.167223474 
1046	 10028.3102765915 
1047	 10034.1398343495 
1048	 10039.5894184344 
1049	 10050.0756096775 
1050	 10055.1754712969 
1051	 10059.7218357817 
1052	 10066.9126727008 
1053	 10070.2297806866 
1054	 10067.036472692 
1055	 10068.4173707469 
1056	 10081.600608318 
1057	 10098.7955129738 
1058	 10120.5764841917 
1059	 10147.2458097542 
1060	 10168.1362610872 
1061	 10183.7882963859 
1062	 10210.1256404082 
1063	 10245.1250912157 
1064	 10281.8044355322 
1065	 10332.3529313288 
1066	 10391.225363967 
1067	 10450.5818117999 
1068	 10511.0584271026 
1069	 10584.913459063 
1070	 10659.186578838 
1071	 10731.9584542524 
1072	 10821.9924703096 
1073	 10918.8092730489 
1074	 11017.4739953 
1075	 11129.1836619907 
1076	 11251.1885824361 
1077	 11368.1662984298 
1078	 11494.1899996854 
1079	 11631.0104347777 
1080	 11769.1852295276 
1081	 11907.4798697285 
1082	 12057.373212713 
1083	 12209.8900516607 
1084	 12364.927574598 
1085	 12527.3453764701 
1086	 12682.8101401128 
1087	 12840.7338447924 
1088	 12998.6779720843 
1089	 13150.5470569609 
1090	 13308.385255995 
1091	 13468.4084753724 
1092	 13624.7425867583 
1093	 13777.546248974 
1094	 13926.7406513146 
1095	 14075.7378146041 
1096	 14223.5183319671 
1097	 14367.1832833639 
1098	 14506.0190471711 
1099	 14639.879242576 
1100	 14771.0401544352 
1101	 14897.1179272207 
1102	 15019.0000629535 
1103	 15144.1911497968 
1104	 15263.2695789287 
1105	 15375.5826719459 
1106	 15487.0406812465 
1107	 15598.3221424892 
1108	 15703.5175651204 
1109	 15804.0475982763 
1110	 15904.236955 
1111	 16002.3908244074 
1112	 16094.226013293 
1113	 16193.7134528031 
1114	 16281.4143469736 
1115	 16363.4429696047 
1116	 16452.189097347 
1117	 16534.863076267 
1118	 16616.1156461632 
1119	 16694.2670376652 
1120	 16772.5759896744 
1121	 16846.3369076464 
1122	 16908.3438126122 
1123	 16982.6586642501 
1124	 17063.8618230526 
1125	 17142.0761704053 
1126	 17225.903129442 
1127	 17305.3454926622 
1128	 17381.0630584685 
1129	 17450.6928078579 
1130	 17517.4765420571 
1131	 17586.7490824705 
1132	 17650.6037003704 
1133	 17707.8929227234 
1134	 17769.6790225522 
1135	 17831.4789499641 
1136	 17892.2163842017 
1137	 17952.5452780687 
1138	 18014.4395179002 
1139	 18081.760250273 
1140	 18137.5821053379 
1141	 18189.7972164157 
1142	 18240.4423605053 
1143	 18280.6383439627 
1144	 18321.7999213316 
1145	 18360.3601512306 
1146	 18400.8196988573 
1147	 18442.2072094805 
1148	 18480.0760412619 
1149	 18522.7952923895 
1150	 18570.7280349604 
1151	 18615.5389457287 
1152	 18660.1051760122 
1153	 18706.3920438225 
1154	 18754.3725555687 
1155	 18800.9939768224 
1156	 18850.4165040106 
1157	 18894.66127211 
1158	 18936.6909725887 
1159	 18978.5209062445 
1160	 19019.2309720147 
1161	 19060.2365080602 
1162	 19099.0472606075 
1163	 19136.0651335925 
1164	 19173.5501493855 
1165	 19209.4927908309 
1166	 19244.9709080308 
1167	 19286.6644066962 
1168	 19316.9113441749 
1169	 19337.7400072056 
1170	 19362.0016915142 
1171	 19382.1981031123 
1172	 19398.0260612158 
1173	 19420.2290245229 
1174	 19456.3738804332 
1175	 19486.1905171208 
1176	 19520.2390096186 
1177	 19544.6813192669 
1178	 19566.6239105388 
1179	 19586.2893517861 
1180	 19597.3781382109 
1181	 19614.9338211699 
1182	 19633.1320825035 
1183	 19651.4770226323 
1184	 19673.5144119286 
1185	 19692.6696915177 
1186	 19711.8463225498 
1187	 19729.3455511591 
1188	 19741.6511710391 
1189	 19757.1664015783 
1190	 19776.433187969 
1191	 19795.0739643062 
1192	 19819.961292235 
1193	 19853.1636194936 
1194	 19880.0618590206 
1195	 19907.515416616 
1196	 19935.574354116 
1197	 19960.4780216464 
1198	 19989.0356690206 
1199	 20024.3979899308 
1200	 20052.6560478513 
1201	 20073.6036415121 
1202	 20102.402716911 
1203	 20133.6771468534 
1204	 20162.0069097779 
1205	 20196.9386359406 
1206	 20235.1831367337 
1207	 20264.7725600585 
1208	 20286.5037432356 
1209	 20315.0290883322 
1210	 20341.9922216893 
1211	 20372.1269552526 
1212	 20405.8384325944 
1213	 20440.1094813757 
1214	 20472.6315764822 
1215	 20510.8021360329 
1216	 20560.0517789688 
1217	 20598.4990529038 
1218	 20633.8872973358 
1219	 20669.7683520728 
1220	 20699.1198359837 
1221	 20728.3622023164 
1222	 20761.3284181762 
1223	 20799.7079111685 
1224	 20832.6131851063 
1225	 20864.8847005238 
1226	 20894.2568049476 
1227	 20923.3668895203 
1228	 20946.960983876 
1229	 20965.4931341818 
1230	 20984.6130980755 
1231	 20999.0276872835 
1232	 21015.2128835147 
1233	 21035.8835154074 
1234	 21049.4219648629 
1235	 21059.8441780159 
1236	 21067.8468459787 
1237	 21072.5014212737 
1238	 21070.5021656783 
1239	 21073.2573734375 
1240	 21079.1268229838 
1241	 21075.1746006261 
1242	 21066.4858539085 
1243	 21060.0291119448 
1244	 21047.1241928532 
1245	 21037.7253489201 
1246	 21036.3327020364 
1247	 21024.947230065 
1248	 21004.9959054769 
1249	 20989.3836018198 
1250	 20967.4012841176 
1251	 20953.1743689522 
1252	 20946.4349645538 
1253	 20937.5073449552 
1254	 20929.6507920402 
1255	 20927.607866906 
1256	 20914.4131452788 
1257	 20895.8608245561 
1258	 20879.414835352 
1259	 20857.7014396621 
1260	 20839.5586879695 
1261	 20826.3891021396 
1262	 20806.2666519157 
1263	 20782.4667119135 
1264	 20758.9153441119 
1265	 20735.290512437 
1266	 20706.2961290366 
1267	 20674.573588661 
1268	 20641.3505699474 
1269	 20606.1196363519 
1270	 20565.1035565457 
1271	 20523.3041912834 
1272	 20476.0854012149 
1273	 20421.3075953393 
1274	 20357.2111395272 
1275	 20292.8456524986 
1276	 20221.2310887561 
1277	 20154.5580794458 
1278	 20085.035242714 
1279	 20019.4513778906 
1280	 19960.007831833 
1281	 19893.9351931552 
1282	 19825.3580051252 
1283	 19757.8813810579 
1284	 19683.106392162 
1285	 19616.6359458237 
1286	 19553.4101238228 
1287	 19494.4523910158 
1288	 19439.7792361608 
1289	 19389.4616848175 
1290	 19343.1968174403 
1291	 19301.8131311033 
1292	 19261.2330787791 
1293	 19220.0512104559 
1294	 19192.6851526715 
1295	 19173.9105208224 
1296	 19153.698916154 
1297	 19142.7519129723 
1298	 19131.5962131431 
1299	 19112.4537148238 
1300	 19108.9138043923 
1301	 19120.5625032785 
1302	 19127.5629503261 
1303	 19138.6094243611 
1304	 19152.3502852367 
1305	 19165.8242757882 
1306	 19182.9426610589 
1307	 19204.306742741 
1308	 19230.9640502627 
1309	 19253.8701562401 
1310	 19273.3265981851 
1311	 19298.3144201476 
1312	 19322.8539696829 
1313	 19352.2856316018 
1314	 19390.0685473614 
1315	 19419.6019584727 
1316	 19447.7197927864 
1317	 19476.1209383581 
1318	 19500.8999009645 
1319	 19526.7511307427 
1320	 19553.7971938501 
1321	 19580.5750478245 
1322	 19608.2363189653 
1323	 19632.7314304751 
1324	 19660.4534384121 
1325	 19680.5269973972 
1326	 19694.1453239757 
1327	 19705.7820089458 
1328	 19709.4450899669 
1329	 19716.2136049152 
1330	 19725.1860567175 
1331	 19735.3497625065 
1332	 19742.1000433322 
1333	 19750.6486146751 
1334	 19756.6996820427 
1335	 19758.6013925525 
1336	 19761.230575798 
1337	 19768.9932669907 
1338	 19766.4736093351 
1339	 19756.9688611686 
1340	 19748.3024201854 
1341	 19736.8588086937 
1342	 19720.2921412704 
1343	 19707.1948967529 
1344	 19681.4786069015 
1345	 19644.8512923086 
1346	 19605.3888158974 
1347	 19563.1391032825 
1348	 19507.6390714622 
1349	 19450.2440259314 
1350	 19384.1345994203 
1351	 19303.8289318927 
1352	 19209.0993424383 
1353	 19111.2729207788 
1354	 18994.8060149093 
1355	 18894.3330312459 
1356	 18794.7241505872 
1357	 18697.426190822 
1358	 18607.3909846 
1359	 18513.7627861285 
1360	 18397.65025521 
1361	 18323.1231961257 
1362	 18254.2771147322 
1363	 18220.7903209294 
1364	 18239.5742578909 
1365	 18246.1201548185 
1366	 18275.5261567236 
1367	 18294.664911606 
1368	 18304.1524287027 
1369	 18321.8098620131 
1370	 18347.1818462635 
1371	 18376.3800479554 
1372	 18395.2732472226 
1373	 18433.5997852707 
1374	 18415.7546343034 
1375	 18390.1300879846 
1376	 18298.2878932524 
1377	 18155.2887174486 
1378	 17988.6924361193 
1379	 17744.7229244014 
1380	 17549.3199007169 
1381	 17313.1082482946 
1382	 17156.4010797488 
1383	 17052.1140955488 
1384	 16952.408052493 
1385	 16924.3458487557 
1386	 16848.3903223239 
1387	 16780.5659267156 
1388	 16669.5727033098 
1389	 16530.4780332311 
1390	 16364.6441360031 
1391	 16172.463989871 
1392	 15952.1819690772 
1393	 15729.2430920994 
1394	 15508.4198124269 
1395	 15310.3823711068 
1396	 15120.2410494236 
1397	 14942.1885017853 
1398	 14786.0487903667 
1399	 14624.626251876 
1400	 14466.5069046035 
1401	 14311.7559375737 
1402	 14160.4167883361 
1403	 14015.4267405804 
1404	 13870.817740505 
1405	 13738.5231684705 
1406	 13612.4641854908 
1407	 13498.375126275 
1408	 13396.7595345251 
1409	 13300.6892641957 
1410	 13217.7673853483 
1411	 13135.8947305369 
1412	 13061.3922128035 
1413	 12985.6417554895 
1414	 12909.9213133485 
1415	 12839.7692831355 
1416	 12772.2642240248 
1417	 12707.7477647891 
1418	 12641.1597419063 
1419	 12580.3511991086 
1420	 12530.2928145052 
1421	 12486.7810220976 
1422	 12441.8042051781 
1423	 12409.3574888817 
1424	 12368.2623336153 
1425	 12317.0090417393 
1426	 12279.3163088947 
1427	 12247.0396461973 
1428	 12216.8827988325 
1429	 12191.2857166141 
1430	 12168.9700246962 
1431	 12146.5667345459 
1432	 12134.5126941021 
1433	 12134.4184614073 
1434	 12130.1962906012 
1435	 12132.5807852547 
1436	 12131.0907462998 
1437	 12125.2903981116 
1438	 12121.5316104206 
1439	 12117.0173064146 
1440	 12115.4271288823 
1441	 12116.0862360163 
1442	 12116.1464845404 
1443	 12114.8192390341 
1444	 12116.9808516255 
1445	 12125.0603957651 
1446	 12135.0935271086 
1447	 12148.7213606038 
1448	 12173.3120853583 
1449	 12186.7308195202 
1450	 12197.3496770993 
1451	 12206.4538740965 
1452	 12209.9549171641 
1453	 12217.2058091666 
1454	 12224.5906905847 
1455	 12232.5390306316 
1456	 12240.8127892886 
1457	 12250.882224732 
1458	 12263.0602470443 
1459	 12273.0413841486 
1460	 12282.1875781564 
1461	 12293.6399308191 
1462	 12304.7491507106 
1463	 12316.3482658887 
1464	 12332.487830254 
1465	 12345.0000420312 
1466	 12351.8617248778 
1467	 12363.8247615037 
1468	 12375.8272276404 
1469	 12389.9048836555 
1470	 12414.3881120507 
1471	 12437.7980377478 
1472	 12459.5021669999 
1473	 12482.047774747 
1474	 12506.3061239198 
1475	 12528.6218522759 
1476	 12553.996062417 
1477	 12584.8774881541 
1478	 12610.6017139878 
1479	 12634.1716532583 
1480	 12657.8214189692 
1481	 12679.7465930186 
1482	 12703.6608329957 
1483	 12726.1180178207 
1484	 12751.8940469322 
1485	 12783.2414917489 
1486	 12808.6394048092 
1487	 12832.4302621961 
1488	 12856.7918102159 
1489	 12876.3073987708 
1490	 12900.2680651576 
1491	 12930.4447488471 
1492	 12954.8554122651 
1493	 12977.2026161814 
1494	 12998.8813062058 
1495	 13016.3642945702 
1496	 13036.4042773296 
1497	 13055.3557711525 
1498	 13078.9133349125 
1499	 13109.9847706813 
1500	 13133.4923805025 
1501	 13155.0791977033 
1502	 13177.6869962557 
1503	 13195.0796472234 
1504	 13211.1987475902 
1505	 13230.7491611097 
1506	 13251.4327093516 
1507	 13271.7728566118 
1508	 13292.1960093829 
1509	 13310.992169696 
1510	 13329.1995019169 
1511	 13348.8591581288 
1512	 13366.6838596163 
1513	 13386.4983632475 
1514	 13409.9404093722 
1515	 13430.923701121 
1516	 13451.8424509954 
1517	 13469.7170590978 
1518	 13484.9835261687 
1519	 13502.3674504423 
1520	 13517.9857143948 
1521	 13535.5819096922 
1522	 13558.0180211473 
1523	 13574.4908410525 
1524	 13587.1403358419 
1525	 13601.1863616145 
1526	 13612.5815700818 
1527	 13625.8043774523 
1528	 13643.1997656806 
1529	 13655.4993676263 
1530	 13664.1623926864 
1531	 13674.1797028712 
1532	 13682.8092343795 
1533	 13690.3585377941 
1534	 13696.6002325049 
1535	 13705.6501092077 
1536	 13714.8620940862 
1537	 13723.7744552677 
1538	 13737.4784695541 
1539	 13746.9475712353 
1540	 13751.9978145634 
1541	 13757.7769199987 
1542	 13763.9018688234 
1543	 13768.3674044119 
1544	 13774.3652924991 
1545	 13781.0296073675 
1546	 13788.5531555409 
1547	 13796.8868599331 
1548	 13804.0741648913 
1549	 13814.5454034002 
1550	 13816.109512677 
1551	 13809.5896584385 
1552	 13813.2061345355 
1553	 13815.6065138506 
1554	 13821.6731730226 
1555	 13838.3724389149 
1556	 13844.5375285444 
1557	 13844.8082953237 
1558	 13847.9107274423 
1559	 13848.1353521155 
1560	 13852.5597359609 
1561	 13860.5490170028 
1562	 13865.2825585528 
1563	 13870.9963667862 
1564	 13874.4025208091 
1565	 13876.2260506611 
1566	 13876.0304822921 
1567	 13874.9399716928 
1568	 13871.7949106299 
1569	 13863.4674421963 
1570	 13859.0482214596 
1571	 13856.6931735713 
1572	 13851.774720464 
1573	 13844.271566194 
1574	 13841.8624864844 
1575	 13841.5782299438 
1576	 13839.4363967516 
1577	 13843.5513846606 
1578	 13841.146827825 
1579	 13832.6943473702 
1580	 13824.3979949361 
1581	 13809.0499656929 
1582	 13802.1064220169 
1583	 13802.015434735 
1584	 13796.6669671494 
1585	 13794.8765225973 
1586	 13790.3198488022 
1587	 13776.778715156 
1588	 13768.5509230772 
1589	 13764.4377395809 
1590	 13759.509096399 
1591	 13755.8379194541 
1592	 13752.240536809 
1593	 13749.5818740962 
1594	 13745.3868077678 
1595	 13741.6094501714 
1596	 13735.3677740093 
1597	 13730.8683214251 
1598	 13725.8635782171 
1599	 13720.0585245437 
1600	 13715.7665953351 
1601	 13706.986752385 
1602	 13694.0711115099 
1603	 13685.3873375338 
1604	 13676.5797085262 
1605	 13668.4541171821 
1606	 13662.907034368 
1607	 13654.6810683597 
1608	 13647.3799476735 
1609	 13632.2061502491 
1610	 13612.1005361184 
1611	 13595.6722702591 
1612	 13574.6474124337 
1613	 13556.9484461587 
1614	 13542.7580781717 
1615	 13528.7981832965 
1616	 13515.1437656751 
1617	 13498.7970217946 
1618	 13486.1681385523 
1619	 13466.4547601361 
1620	 13439.0020549147 
1621	 13416.1051649591 
1622	 13393.7408774311 
1623	 13368.9143550003 
1624	 13343.702347826 
1625	 13317.6159979927 
1626	 13288.8510621107 
1627	 13261.6660273755 
1628	 13236.5319471241 
1629	 13207.8541731029 
1630	 13177.3890697951 
1631	 13146.3801146919 
1632	 13111.5520626444 
1633	 13081.2778059276 
1634	 13052.9563010303 
1635	 13024.3611520419 
1636	 12999.793491039 
1637	 12969.45249314 
1638	 12935.3133700623 
1639	 12903.2733890161 
1640	 12870.7808729442 
1641	 12835.9779016982 
1642	 12799.9796221136 
1643	 12766.2267275363 
1644	 12731.5672951452 
1645	 12695.6684883117 
1646	 12662.8385612082 
1647	 12625.8661698587 
1648	 12583.2150691328 
1649	 12544.8827364468 
1650	 12506.8315339581 
1651	 12470.5274620556 
1652	 12439.7906235201 
1653	 12400.5949589603 
1654	 12358.8961117556 
1655	 12315.5588020752 
1656	 12265.7756564478 
1657	 12218.0145380333 
1658	 12169.9279995718 
1659	 12123.517506554 
1660	 12079.6459733687 
1661	 12029.8656777848 
1662	 11977.4174049306 
1663	 11926.4575095684 
1664	 11869.6489109334 
1665	 11819.3639137243 
1666	 11774.5341214133 
1667	 11728.9404962646 
1668	 11684.5800083235 
1669	 11640.4018372539 
1670	 11597.8773113037 
1671	 11554.6166554836 
1672	 11509.2642602463 
1673	 11468.7707407153 
1674	 11431.2408015678 
1675	 11392.3730041817 
1676	 11356.7845156084 
1677	 11318.866203838 
1678	 11280.3539238917 
1679	 11239.3658537993 
1680	 11197.5159298546 
1681	 11154.6112937922 
1682	 11109.8882344486 
1683	 11062.1341271633 
1684	 11010.1599479564 
1685	 10962.7178078336 
1686	 10914.3151180909 
1687	 10866.4865264056 
1688	 10820.1730151799 
1689	 10777.6506835813 
1690	 10736.1915858891 
1691	 10695.4945980205 
1692	 10664.4324523286 
1693	 10622.9142786937 
1694	 10575.0586454122 
1695	 10526.932919489 
1696	 10469.1283798325 
1697	 10421.7467843079 
1698	 10378.972301297 
1699	 10334.7864829611 
1700	 10295.9383848246 
1701	 10256.6783741249 
1702	 10214.6211092915 
1703	 10177.6307447452 
1704	 10145.8379907097 
1705	 10110.4325345716 
1706	 10076.7558208289 
1707	 10040.2799631298 
1708	 10000.4364481328 
1709	 9961.93005857598 
1710	 9921.96517115103 
1711	 9884.04572573304 
1712	 9849.34192047241 
1713	 9811.08219075224 
1714	 9774.54370788279 
1715	 9731.69770897139 
1716	 9679.59843884316 
1717	 9637.25672531286 
1718	 9596.6394582688 
1719	 9554.17503550914 
1720	 9517.47953522811 
1721	 9476.01738490902 
1722	 9427.3187354263 
1723	 9385.10733192351 
1724	 9346.63906464369 
1725	 9307.64014489092 
1726	 9272.5880623266 
1727	 9234.20395061784 
1728	 9191.72681945406 
1729	 9152.0989289696 
1730	 9110.63667749429 
1731	 9073.94172206893 
1732	 9042.51175905123 
1733	 9008.65096940621 
1734	 8977.25885928358 
1735	 8943.08926028139 
1736	 8906.8997590903 
1737	 8869.98026103476 
1738	 8830.3111546196 
1739	 8794.33234255648 
1740	 8759.72284369515 
1741	 8726.14316041986 
1742	 8697.91185473708 
1743	 8660.40609253041 
1744	 8617.39209583829 
1745	 8573.69807521195 
1746	 8529.12054413441 
1747	 8486.46748722023 
1748	 8444.58129603708 
1749	 8405.40647013924 
1750	 8370.11334988241 
1751	 8331.5290669322 
1752	 8297.8531924226 
1753	 8261.43891956908 
1754	 8217.95562596135 
1755	 8180.59378148424 
1756	 8140.41889482384 
1757	 8099.50472402469 
1758	 8061.69374860249 
1759	 8022.31927981015 
1760	 7982.10303207441 
1761	 7938.40263425399 
1762	 7897.73403299481 
1763	 7858.23967251035 
1764	 7815.22926296682 
1765	 7775.17830076609 
1766	 7740.4322608942 
1767	 7705.67953343184 
1768	 7669.989236015 
1769	 7638.11255899883 
1770	 7600.320822956 
1771	 7555.71146533174 
1772	 7519.21018610663 
1773	 7486.27931895939 
1774	 7448.26214783324 
1775	 7414.46350005686 
1776	 7383.31322454525 
1777	 7347.30594229562 
1778	 7311.1767768477 
1779	 7274.4343428616 
1780	 7235.57103601176 
1781	 7191.52062909961 
1782	 7152.21054354488 
1783	 7115.39006330938 
1784	 7079.18451533074 
1785	 7044.22757338217 
1786	 7012.68182197807 
1787	 6983.7275009906 
1788	 6950.31283888168 
1789	 6923.11567349297 
1790	 6885.62016753791 
1791	 6838.18431493615 
1792	 6798.46915173805 
1793	 6753.88112802087 
1794	 6715.04825881358 
1795	 6683.14216330875 
1796	 6647.86584322597 
1797	 6611.00997266433 
1798	 6573.30682638596 
1799	 6540.20637980841 
1800	 6494.86579294122 
1801	 11512.9605877183 
1802	 11632.6017841477 
1803	 11756.5003066556 
1804	 11887.9741878444 
1805	 11999.9766789245 
1806	 12104.9638364338 
1807	 12214.7880007321 
1808	 12310.16519494 
1809	 12386.9732509634 
1810	 12468.5342382171 
1811	 12552.1796716811 
1812	 12623.8515993612 
1813	 12688.7949253739 
1814	 12746.7066327302 
1815	 12795.758856515 
1816	 12840.7882521286 
1817	 12882.3600419595 
1818	 12924.5277449958 
1819	 12975.8353545865 
1820	 13031.7854774966 
1821	 13088.7397619999 
1822	 13157.2292429153 
1823	 13223.9930487148 
1824	 13261.157360771 
1825	 13290.3860568009 
1826	 13325.9932771405 
1827	 13366.2504663209 
1828	 13416.0241712908 
1829	 13500.3871178461 
1830	 13548.2663280291 
1831	 13596.0223587938 
1832	 13613.9396855203 
1833	 13594.5316713485 
1834	 13579.5733298185 
1835	 13550.7792517887 
1836	 13523.165798879 
1837	 13524.864200474 
1838	 13545.9403383039 
1839	 13602.690495582 
1840	 13718.0605323044 
1841	 13798.9539330708 
1842	 13905.3616679967 
1843	 14001.7863104165 
1844	 14016.4657314237 
1845	 14028.7047010821 
1846	 14047.999731519 
1847	 14053.8532099807 
1848	 14089.0553314407 
1849	 14176.3926270632 
1850	 14209.9493640457 
1851	 14232.7059229307 
1852	 14250.9823940176 
1853	 14231.4614921207 
1854	 14197.1199921425 
1855	 14166.8698088411 
1856	 14130.8329113288 
1857	 14095.0546180289 
1858	 14072.8375388896 
1859	 14051.6301332805 
1860	 14057.7197301887 
1861	 14016.0611565978 
1862	 13975.4384311389 
1863	 13901.1446556749 
1864	 13754.1017084927 
1865	 13566.1067407117 
1866	 13317.0050055982 
1867	 13034.0067318846 
1868	 12741.418732916 
1869	 12470.5537677907 
1870	 12256.4806517269 
1871	 12077.0348508578 
1872	 11935.1163339941 
1873	 11852.2682333016 
1874	 11793.7225179728 
1875	 11752.8222029618 
1876	 11712.7151527256 
1877	 11659.1143483586 
1878	 11593.8746725474 
1879	 11474.4555741735 
1880	 11316.2758393312 
1881	 11153.6970650027 
1882	 10968.8861820773 
1883	 10754.9267692347 
1884	 10533.2895710369 
1885	 10340.9025257069 
1886	 10131.7865376266 
1887	 9913.37193703388 
1888	 9715.27037734096 
1889	 9517.56782097305 
1890	 9336.13860465467 
1891	 9171.88814024585 
1892	 9028.27429221223 
1893	 8905.41515088392 
1894	 8770.54598100606 
1895	 8617.89688325189 
1896	 8465.84268992464 
1897	 8290.7020599251 
1898	 8125.26843242751 
1899	 7994.21686750224 
1900	 7867.32338593187 
1901	 7752.40036925711 
1902	 7656.64853361072 
1903	 7581.23821731012 
1904	 7505.29443674596 
1905	 7452.9655610525 
1906	 7439.04080404884 
1907	 7417.56455493604 
1908	 7396.24225514669 
1909	 7373.59571599555 
1910	 7324.29603232401 
1911	 7291.46776818852 
1912	 7267.42189143474 
1913	 7240.49997111785 
1914	 7215.24786307999 
1915	 7203.83885525291 
1916	 7172.94668496506 
1917	 7127.49364824725 
1918	 7092.97176446779 
1919	 7056.26258865632 
1920	 7036.67015918874 
1921	 7052.78958049661 
1922	 7069.19966994999 
1923	 7088.22532018655 
1924	 7106.64623257692 
1925	 7130.52467661459 
1926	 7136.24564215685 
1927	 7147.66966762303 
1928	 7168.13912100015 
1929	 7177.71182321681 
1930	 7186.90594048456 
1931	 7204.936248988 
1932	 7223.45275611544 
1933	 7241.24980174903 
1934	 7250.33686151398 
1935	 7259.46241107801 
1936	 7262.92059077889 
1937	 7267.19528038206 
1938	 7275.7858013819 
1939	 7302.31195208922 
1940	 7326.54788099361 
1941	 7342.08139166496 
1942	 7363.19253929904 
1943	 7370.67912254655 
1944	 7383.69880412606 
1945	 7414.4796007473 
1946	 7437.04386824767 
1947	 7458.36723497767 
1948	 7479.29621625383 
1949	 7502.52054205552 
1950	 7513.99979779413 
1951	 7531.21093237053 
1952	 7561.7748876098 
1953	 7592.53806380867 
1954	 7613.60727784618 
1955	 7625.42952642912 
1956	 7633.96948270242 
1957	 7650.92644711754 
1958	 7680.84067013998 
1959	 7705.51153260863 
1960	 7738.25832334161 
1961	 7762.01614643624 
1962	 7779.57277601843 
1963	 7794.52668118574 
1964	 7799.99895266033 
1965	 7808.98965734944 
1966	 7832.75280449898 
1967	 7848.89423134756 
1968	 7860.61002725118 
1969	 7882.58413620473 
1970	 7904.0225901084 
1971	 7916.03949576986 
1972	 7938.44636536597 
1973	 7973.30266213473 
1974	 8004.70573217399 
1975	 8023.9123652804 
1976	 8038.00689026351 
1977	 8061.32014616133 
1978	 8086.55401190746 
1979	 8104.91064649784 
1980	 8128.78323113442 
1981	 8153.70941411459 
1982	 8173.86465773462 
1983	 8188.77492238867 
1984	 8202.63481535281 
1985	 8218.93417975239 
1986	 8228.08218908608 
1987	 8238.20898916023 
1988	 8260.3442490992 
1989	 8287.52353382967 
1990	 8311.38538948917 
1991	 8334.27773094014 
1992	 8352.92230670954 
1993	 8369.88950397864 
1994	 8385.50201417418 
1995	 8391.94639236835 
1996	 8405.41359100153 
1997	 8429.524552035 
1998	 8442.2811878821 
1999	 8449.43456778823 
2000	 8458.90970502307 
2001	 8464.15898438963 
2002	 8472.61995458002 
2003	 8495.78849443275 
2004	 8516.23338448077 
2005	 8534.32613154665 
2006	 8549.25435308538 
2007	 8563.50294542268 
2008	 8572.6379287708 
2009	 8585.40607290479 
2010	 8605.47509242364 
2011	 8613.48961139545 
2012	 8612.01493545049 
2013	 8617.24390660441 
2014	 8622.32926132233 
2015	 8622.68686598018 
2016	 8629.12983875388 
2017	 8635.25612057771 
2018	 8640.0746041385 
2019	 8650.45497579435 
2020	 8660.77581838756 
2021	 8679.17854833158 
2022	 8687.54767329176 
2023	 8694.85429563644 
2024	 8693.75161149608 
2025	 8682.8410382412 
2026	 8676.72191491244 
2027	 8665.08832614757 
2028	 8655.64793907072 
2029	 8651.6515769442 
2030	 8643.91795420825 
2031	 8632.84347114061 
2032	 8617.47236057219 
2033	 8612.41839720016 
2034	 8613.15903868919 
2035	 8607.64571920465 
2036	 8613.45314113173 
2037	 8607.26636840886 
2038	 8584.57750694132 
2039	 8569.89711842201 
2040	 8558.68548020941 
2041	 8539.4027080484 
2042	 8520.77325182412 
2043	 8511.77471117301 
2044	 8495.09436493583 
2045	 8480.85182696592 
2046	 8475.77065244354 
2047	 8466.51316038121 
2048	 8457.12807537871 
2049	 8451.68371655362 
2050	 8440.15149077039 
2051	 8423.19953895349 
2052	 8410.85780623861 
2053	 8396.46935500905 
2054	 8385.64685426796 
2055	 8385.20337934264 
2056	 8377.92680668074 
2057	 8366.9990985289 
2058	 8355.35276647715 
2059	 8337.23987459646 
2060	 8317.44893706378 
2061	 8299.84181539615 
2062	 8282.11374273039 
2063	 8269.09333522062 
2064	 8258.51342461982 
2065	 8245.82325574516 
2066	 8232.97287937185 
2067	 8227.60054651737 
2068	 8226.27796508179 
2069	 8222.39749174885 
2070	 8219.64827548349 
2071	 8216.21950317719 
2072	 8203.76937027674 
2073	 8187.73460151272 
2074	 8186.84165372854 
2075	 8186.48540953319 
2076	 8185.11538738647 
2077	 8190.70401976842 
2078	 8189.07648183028 
2079	 8181.65140216732 
2080	 8178.32886975084 
2081	 8173.05612119893 
2082	 8167.59446191126 
2083	 8163.99466823392 
2084	 8160.54961205339 
2085	 8150.31152621837 
2086	 8144.34924448492 
2087	 8142.81027621085 
2088	 8138.81405401028 
2089	 8133.62692418877 
2090	 8137.82311594011 
2091	 8129.11505848977 
2092	 8106.45121266992 
2093	 8095.35292165718 
2094	 8080.0792360137 
2095	 8072.65697340332 
2096	 8079.30083780494 
2097	 8078.67064630384 
2098	 8077.43203817542 
2099	 8074.87494117888 
2100	 8069.93477195777 
2101	 8066.21666865563 
2102	 8057.48518641206 
2103	 8049.20621463178 
2104	 8039.83801483394 
2105	 8026.82239956562 
2106	 8015.92339218591 
2107	 8015.20234154175 
2108	 8015.74595455442 
2109	 8022.88488488782 
2110	 8020.03948400985 
2111	 8015.57699841785 
2112	 8011.6816727604 
2113	 8001.50166864772 
2114	 7998.34516016836 
2115	 8002.32350838451 
2116	 8003.26994856949 
2117	 8003.00857713685 
2118	 8004.88365664667 
2119	 8003.93576827677 
2120	 7993.00234948373 
2121	 7983.48296475774 
2122	 7966.88005011125 
2123	 7952.70132317695 
2124	 7952.01738312711 
2125	 7949.37369278463 
2126	 7949.17374733301 
2127	 7951.07816041115 
2128	 7958.08029779375 
2129	 7959.16323371797 
2130	 7963.69838394587 
2131	 7962.25715947434 
2132	 7955.72516782372 
2133	 7946.58649116981 
2134	 7930.88806002399 
2135	 7917.19919187975 
2136	 7908.81104377874 
2137	 7904.4463588088 
2138	 7912.0613508414 
2139	 7907.72619735042 
2140	 7894.13190351601 
2141	 7885.74044995039 
2142	 7872.54308533081 
2143	 7867.83895293756 
2144	 7865.03297413259 
2145	 7869.78159197426 
2146	 7865.90990842362 
2147	 7863.56601728025 
2148	 7858.44099347533 
2149	 7849.85838269557 
2150	 7841.91341094054 
2151	 7835.75727457216 
2152	 7817.52214552887 
2153	 7812.55602227394 
2154	 7797.31590692738 
2155	 7781.17448369913 
2156	 7774.4326171395 
2157	 7764.33694121875 
2158	 7759.41394342 
2159	 7756.99930866116 
2160	 7756.01075497586 
2161	 7749.65803973931 
2162	 7738.87601066484 
2163	 7727.40708546807 
2164	 7712.39703399725 
2165	 7697.3691540081 
2166	 7675.82573016032 
2167	 7664.93093194707 
2168	 7663.827650098 
2169	 7653.41410985591 
2170	 7645.17649168489 
2171	 7634.27829040124 
2172	 7614.42027683196 
2173	 7597.40897890529 
2174	 7590.88062860894 
2175	 7580.40235639632 
2176	 7571.64465303614 
2177	 7572.91736334696 
2178	 7563.36670976777 
2179	 7556.69832571476 
2180	 7542.04086194457 
2181	 7519.16586997396 
2182	 7505.20042420724 
2183	 7494.19318650012 
2184	 7478.8005858036 
2185	 7464.53277378712 
2186	 7451.79980014888 
2187	 7436.84244441687 
2188	 7423.72525560126 
2189	 7416.40750272103 
2190	 7405.9571131305 
2191	 7394.69362959752 
2192	 7379.61292695147 
2193	 7360.99217139481 
2194	 7340.87736761526 
2195	 7319.68875415951 
2196	 7294.89476335605 
2197	 7277.08326931748 
2198	 7257.58971840273 
2199	 7229.54578388591 
2200	 7206.56446292609 
2201	 7179.05777092909 
2202	 7151.60443010639 
2203	 7127.42132769654 
2204	 7094.99856292289 
2205	 7067.29770283563 
2206	 7038.06990271881 
2207	 7016.56175209088 
2208	 7006.3682175254 
2209	 6982.91316364468 
2210	 6953.67230054544 
2211	 6928.64900234367 
2212	 6890.43984574735 
2213	 6867.57956485301 
2214	 6858.95655371865 
2215	 6849.40030312536 
2216	 6838.55390218531 
2217	 6826.07527228884 
2218	 6796.94454001518 
2219	 6767.83594562358 
2220	 6740.17868924673 
2221	 6709.7240781823 
2222	 6679.8728769061 
2223	 6648.1555689338 
2224	 6608.67945626177 
2225	 6577.06240199211 
2226	 6554.29444823531 
2227	 6532.86749656456 
2228	 6500.29814641865 
2229	 6460.29144308467 
2230	 6421.49174798479 
2231	 6368.36757654826 
2232	 6332.79511694385 
2233	 6315.45214524071 
2234	 6284.39137543758 
2235	 6255.35812127849 
2236	 6219.09544353371 
2237	 6169.52501857867 
2238	 6125.10145170758 
2239	 6079.97459366472 
2240	 6038.23890312961 
2241	 5996.84844213866 
2242	 5952.75962457929 
2243	 5907.70818125781 
2244	 5868.26945857174 
2245	 5825.49679403797 
2246	 5782.570352902 
2247	 5743.34103747732 
2248	 5701.27781774188 
2249	 5658.53997019524 
2250	 5615.67195652543 
2251	 5569.29520025483 
2252	 5522.67161953115 
2253	 5477.62113287871 
2254	 5429.69555934261 
2255	 5378.67654227538 
2256	 5322.19471095096 
2257	 5272.87457520573 
2258	 5222.88844220649 
2259	 5176.45708049134 
2260	 5137.95118346501 
2261	 5094.658283556 
2262	 5046.91445555778 
2263	 5003.20255450661 
2264	 4962.1253485466 
2265	 4921.68895731745 
2266	 4885.35120318787 
2267	 4844.1968850179 
2268	 4800.79270466331 
2269	 4757.26853137283 
2270	 4713.46753854345 
2271	 4673.54701124296 
2272	 4640.80056278113 
2273	 4602.26083911821 
2274	 4568.97145617804 
2275	 4546.67192352763 
2276	 4521.58452203805 
2277	 4490.87401426749 
2278	 4450.6574054786 
2279	 4409.49088889096 
2280	 4370.02481145871 
2281	 4347.38518478583 
2282	 4334.26022715221 
2283	 4304.03975459328 
2284	 4275.43463937191 
2285	 4243.44373500278 
2286	 4203.88889560545 
2287	 4181.17042008406 
2288	 4158.31767382852 
2289	 4143.2045872005 
2290	 4115.92896513555 
2291	 4089.69855107979 
2292	 4053.93309585063 
2293	 4004.60773585863 
2294	 3963.28535587649 
2295	 3920.38515688494 
2296	 3881.76219356314 
2297	 3844.68822965546 
2298	 3809.20747159051 
2299	 3773.7437122842 
2300	 3742.79179582879 
2301	 3718.37098841631 
2302	 3692.77885166506 
2303	 3654.6607349271 
2304	 3619.8056352642 
2305	 3570.23701184212 
2306	 3524.32440447562 
2307	 3491.07358408566 
2308	 3457.24451455111 
2309	 3427.91936877705 
2310	 3398.91416646192 
2311	 3368.69996599544 
2312	 3336.95189863022 
2313	 3311.94476998387 
2314	 3286.60926764494 
2315	 3256.72963031915 
2316	 3226.02958035017 
2317	 3194.86779826074 
2318	 3173.87726480548 
2319	 3150.7255775115 
2320	 3120.60765205549 
2321	 3092.20208408101 
2322	 3055.85751666213 
2323	 3011.41817140425 
2324	 2986.2528553996 
2325	 2966.32843806057 
2326	 2934.71017247342 
2327	 2912.37297273836 
2328	 2884.67165647079 
2329	 2850.59994792883 
2330	 2821.7537423943 
2331	 2790.53697541278 
2332	 2755.89318490869 
2333	 2726.85027077569 
2334	 2697.08893881075 
2335	 2673.6163282552 
2336	 2660.16367815525 
2337	 2639.67630700989 
2338	 2622.62183257763 
2339	 2596.70909785323 
2340	 2559.94710861163 
2341	 2530.75168879475 
2342	 2498.59826135019 
2343	 2471.85670343902 
2344	 2454.53657776618 
2345	 2433.14016255496 
2346	 2407.88331505075 
2347	 2387.95070298009 
2348	 2373.5219237538 
2349	 2349.68813070041 
2350	 2327.61159243391 
2351	 2310.49009279152 
2352	 2284.98996053427 
2353	 2254.11212535806 
2354	 2225.5602594073 
2355	 2203.68970697306 
2356	 2187.47688886553 
2357	 2171.49445921178 
2358	 2154.70376320472 
2359	 2138.58689916608 
2360	 2108.49821517815 
2361	 2081.75262791429 
2362	 2068.06324916968 
2363	 2038.44751709648 
2364	 2015.83211452841 
2365	 1997.33520335326 
2366	 1963.56131908042 
2367	 1938.59588752373 
2368	 1917.12796455437 
2369	 1894.50825596793 
2370	 1881.15591904058 
2371	 1859.80998059071 
2372	 1835.03438868168 
2373	 1821.8268964054 
2374	 1798.12757651411 
2375	 1786.26237064718 
2376	 1781.48843237539 
2377	 1754.42985848073 
2378	 1740.0862481291 
2379	 1720.22094896618 
2380	 1689.4602508925 
2381	 1666.06591942248 
2382	 1633.41471527418 
2383	 1606.64323751252 
2384	 1588.36313555164 
2385	 1572.86271292837 
2386	 1565.93697395688 
2387	 1558.86123369975 
2388	 1551.16265290894 
2389	 1544.93728599629 
2390	 1524.02942414783 
2391	 1490.16362066251 
2392	 1457.01027678302 
2393	 1426.44918926482 
2394	 1401.92903643462 
2395	 1385.68539523225 
2396	 1370.65299737913 
2397	 1351.05761999674 
2398	 1338.75615023486 
2399	 1330.9322813786 
2400	 1317.65979988328 
2401	 1307.66564279208 
2402	 1292.64482000573 
2403	 1272.59801441096 
2404	 1260.66183998748 
2405	 1246.85951028259 
2406	 1239.22693136983 
2407	 1231.69800266023 
2408	 1211.67510261387 
2409	 1197.83777522287 
2410	 1171.61643036115 
2411	 1139.83254432855 
2412	 1123.85942349544 
2413	 1103.51348182508 
2414	 1084.43988737655 
2415	 1077.74173268809 
2416	 1075.57117316897 
2417	 1067.89618917569 
2418	 1056.55480516438 
2419	 1036.33040257393 
2420	 1004.58575163391 
2421	 981.31418594351 
2422	 970.799696937564 
2423	 968.969392244548 
2424	 969.201024480713 
2425	 971.568947871834 
2426	 979.190186116497 
2427	 969.291722852901 
2428	 953.534130001616 
2429	 932.133950631467 
2430	 892.699346271237 
2431	 870.661593835152 
2432	 849.591332675663 
2433	 826.065025843852 
2434	 816.782615229955 
2435	 801.338466505074 
2436	 788.201293386581 
2437	 787.821883061823 
2438	 794.395795192436 
2439	 794.510204723083 
2440	 794.821523313919 
2441	 793.990750535542 
2442	 773.87811466894 
2443	 752.638910534817 
2444	 737.725469254832 
2445	 719.58086717924 
2446	 703.130184031118 
2447	 696.448554003955 
2448	 692.104944384582 
2449	 684.186448467326 
2450	 683.315982766448 
2451	 678.915828421756 
2452	 668.135792557924 
2453	 662.245267483126 
2454	 649.710616280368 
2455	 628.536864737103 
2456	 611.725143785752 
2457	 594.708383992692 
2458	 577.069878644081 
2459	 563.877205574706 
2460	 550.322146766497 
2461	 545.163287502349 
2462	 538.158818629171 
2463	 530.439290820767 
2464	 535.318450033002 
2465	 534.329748397256 
2466	 529.021699586055 
2467	 524.577333687871 
2468	 510.916264028182 
2469	 485.360965835113 
2470	 463.621082129601 
2471	 456.396427584947 
2472	 459.871692968443 
2473	 466.124770182695 
2474	 469.181049569293 
2475	 475.486292893693 
2476	 472.381574319235 
2477	 469.681737612324 
2478	 481.424430508088 
2479	 476.12292535265 
2480	 464.274190569945 
2481	 456.990474478744 
2482	 437.892795074355 
2483	 426.376812495957 
2484	 420.522131553304 
2485	 401.293472316893 
2486	 380.673012936163 
2487	 372.226253918683 
2488	 363.537266280633 
2489	 365.525330596621 
2490	 382.833847647334 
2491	 391.371686664326 
2492	 397.599187905025 
2493	 398.60616440675 
2494	 385.980721180782 
2495	 368.254663117655 
2496	 362.964310640038 
2497	 358.527087120131 
2498	 347.498126694939 
2499	 347.320024268727 
2500	 342.598413076288 
