Wavelength	spectrum00011.asd
350	 16.2553202807149 
351	 15.9997021452332 
352	 16.155363618362 
353	 17.1468807169981 
354	 18.7725129315115 
355	 19.7190368061219 
356	 20.7293996941991 
357	 21.9992847169707 
358	 23.2083412377901 
359	 24.317012678682 
360	 25.7701305315964 
361	 27.3465568478042 
362	 26.6683860018959 
363	 29.0128729279004 
364	 32.9956358492266 
365	 34.959315542804 
366	 36.8372470402945 
367	 38.7443411274597 
368	 40.3593092597597 
369	 40.9980556682427 
370	 43.5735737281653 
371	 46.5976524441826 
372	 48.4664166453556 
373	 51.1856181017996 
374	 53.4957406798027 
375	 55.4959387516276 
376	 58.042883237005 
377	 59.7498832547242 
378	 61.6255870538995 
379	 64.3185260286893 
380	 67.2402529093559 
381	 69.9995914946175 
382	 73.0378995523473 
383	 76.7550581381676 
384	 79.7778816975728 
385	 80.942123986619 
386	 81.312821513233 
387	 84.1650040852973 
388	 88.3302883607768 
389	 92.2783393118577 
390	 95.2080268137788 
391	 98.8682400715982 
392	 102.209548382512 
393	 105.153440382576 
394	 108.126162776308 
395	 110.346436630545 
396	 113.695872904177 
397	 118.835326443556 
398	 123.837518280871 
399	 128.411870684467 
400	 132.252692722564 
401	 135.52219531195 
402	 140.133066411137 
403	 144.90138445855 
404	 149.32403349909 
405	 153.812934702319 
406	 159.537702886772 
407	 166.011706677348 
408	 172.290343525978 
409	 176.982038814297 
410	 184.369728844556 
411	 192.40441212209 
412	 196.257743474062 
413	 205.682129683893 
414	 214.56802258236 
415	 220.204930493455 
416	 230.22255830587 
417	 239.433237055842 
418	 247.514504824779 
419	 255.830921862864 
420	 264.875137194225 
421	 276.009023750011 
422	 287.801861374127 
423	 295.774057496116 
424	 306.525697498324 
425	 318.364110010715 
426	 328.976813650427 
427	 341.05815213444 
428	 354.655217818302 
429	 368.114154794522 
430	 379.014411272688 
431	 391.549324798016 
432	 404.431584444828 
433	 416.369730042336 
434	 427.731350751162 
435	 440.549748443548 
436	 454.252498633592 
437	 467.312382816982 
438	 480.575515698126 
439	 494.006520170644 
440	 507.037153370282 
441	 518.429745139412 
442	 530.358550961617 
443	 542.972541112526 
444	 555.712845725907 
445	 567.939639507246 
446	 579.495741760113 
447	 590.565311766574 
448	 601.572200672004 
449	 611.453906507307 
450	 621.481146321167 
451	 632.159260673738 
452	 640.735601363014 
453	 647.884937045802 
454	 655.241317777573 
455	 664.362160000033 
456	 669.956416339426 
457	 675.647675924487 
458	 683.153706026813 
459	 688.662795656768 
460	 694.935496621843 
461	 700.698387805839 
462	 704.081691731151 
463	 708.180539839762 
464	 713.073974337355 
465	 718.047926881737 
466	 721.7113704107 
467	 726.792579595122 
468	 732.024850466244 
469	 736.089063459434 
470	 741.535933790048 
471	 746.831772448085 
472	 751.585818515988 
473	 756.396010139977 
474	 761.722127531957 
475	 767.174555834343 
476	 772.498766116411 
477	 778.087658645254 
478	 784.923570121773 
479	 792.222592655952 
480	 798.443371059539 
481	 804.390221238511 
482	 810.720652691135 
483	 817.557694269226 
484	 824.150359070762 
485	 830.574917027012 
486	 837.803387917666 
487	 846.197481160242 
488	 850.742147695106 
489	 857.545960091372 
490	 867.171676196088 
491	 873.169068015126 
492	 880.737141531621 
493	 890.312571118613 
494	 900.845255225424 
495	 910.464414529016 
496	 920.083269498491 
497	 930.57891380007 
498	 942.695384798359 
499	 955.991990322936 
500	 969.482090882699 
501	 982.943528942926 
502	 998.168678484936 
503	 1015.37308523354 
504	 1033.10934760385 
505	 1049.49047436239 
506	 1067.32517612594 
507	 1087.20041538638 
508	 1109.04583045143 
509	 1132.25296836827 
510	 1155.43486284611 
511	 1180.10040827472 
512	 1208.06792005057 
513	 1236.35783797517 
514	 1266.20316112029 
515	 1298.22738716638 
516	 1332.02984379916 
517	 1369.12801364816 
518	 1407.51022462464 
519	 1445.8068936108 
520	 1488.62594843112 
521	 1532.88466610422 
522	 1577.90134607421 
523	 1624.89594196174 
524	 1670.9995643484 
525	 1717.62135533703 
526	 1766.16191137436 
527	 1816.24430663498 
528	 1864.6903455494 
529	 1911.48493735637 
530	 1958.40101636066 
531	 2005.43239886805 
532	 2052.76342135098 
533	 2100.50537198148 
534	 2148.99644113882 
535	 2193.91236661472 
536	 2236.24776082295 
537	 2278.80787172475 
538	 2321.53775918901 
539	 2362.99868289927 
540	 2402.54767442939 
541	 2440.65636226557 
542	 2478.72073064608 
543	 2517.96976971991 
544	 2558.88595909779 
545	 2599.82821521871 
546	 2640.25180038705 
547	 2679.74318919629 
548	 2718.09354765383 
549	 2756.69799791379 
550	 2795.34154737884 
551	 2833.18443898437 
552	 2868.75242770791 
553	 2902.30289573694 
554	 2933.61413968404 
555	 2962.26696259403 
556	 2988.37787408648 
557	 3011.61158310799 
558	 3031.91563876953 
559	 3049.96846305548 
560	 3064.18387022385 
561	 3074.42903279197 
562	 3081.16101713778 
563	 3084.49044816468 
564	 3084.77097332051 
565	 3082.017828579 
566	 3075.79342217051 
567	 3067.35498560572 
568	 3057.6888354501 
569	 3047.30502142287 
570	 3034.58894707312 
571	 3025.44216347966 
572	 3021.08321278522 
573	 3018.54266137306 
574	 3019.68029956913 
575	 3021.36778800277 
576	 3022.91055786182 
577	 3032.80689788456 
578	 3044.69641925677 
579	 3057.44322880835 
580	 3072.80939502039 
581	 3091.77172007901 
582	 3108.79437418936 
583	 3121.75546347588 
584	 3136.68224739629 
585	 3144.84259223569 
586	 3148.45072649246 
587	 3152.98635888286 
588	 3156.4620216997 
589	 3159.17916259202 
590	 3161.45990308083 
591	 3163.52686759014 
592	 3163.32256457895 
593	 3160.2634532077 
594	 3154.92839540717 
595	 3150.20271578695 
596	 3144.36235457896 
597	 3139.26854923386 
598	 3139.25501065474 
599	 3138.89005483616 
600	 3138.64256974189 
601	 3139.06378103353 
602	 3138.00915723875 
603	 3137.90883652526 
604	 3137.68408007297 
605	 3134.73812975411 
606	 3129.6654812735 
607	 3125.29246250324 
608	 3122.28907540125 
609	 3117.43430627789 
610	 3111.98271420957 
611	 3106.4952574971 
612	 3101.17958571271 
613	 3095.10090138428 
614	 3090.04192590918 
615	 3086.39669641273 
616	 3082.98795899518 
617	 3081.03258030014 
618	 3080.18868387607 
619	 3080.16429771243 
620	 3081.80600696457 
621	 3086.16646850912 
622	 3092.39573035541 
623	 3098.43829115698 
624	 3104.13883572428 
625	 3112.37611747391 
626	 3123.55538228263 
627	 3132.00576753672 
628	 3141.4307591794 
629	 3151.86595053246 
630	 3161.72906548164 
631	 3168.59595640686 
632	 3174.88103838674 
633	 3180.92903773338 
634	 3184.01922624002 
635	 3184.66448338726 
636	 3181.71431239221 
637	 3175.14991818011 
638	 3170.11130438627 
639	 3164.95480155104 
640	 3158.40605058605 
641	 3149.70519919861 
642	 3139.90344885613 
643	 3131.2115048182 
644	 3124.6566612379 
645	 3118.33372869969 
646	 3111.9125072089 
647	 3106.18014692659 
648	 3102.21651348174 
649	 3098.19733085796 
650	 3097.91812332603 
651	 3101.52134755312 
652	 3103.50369582085 
653	 3108.03091222453 
654	 3113.51724858306 
655	 3117.88183297283 
656	 3123.64828821323 
657	 3128.91382756517 
658	 3134.79707134951 
659	 3144.39926221096 
660	 3150.01434506381 
661	 3156.96690785089 
662	 3169.13821998436 
663	 3182.00976073108 
664	 3193.0215873712 
665	 3203.73527864572 
666	 3217.34100076527 
667	 3232.13156996655 
668	 3248.08481255458 
669	 3266.02280349357 
670	 3287.73767385518 
671	 3310.24786490483 
672	 3332.98421923209 
673	 3356.56076894875 
674	 3383.152271636 
675	 3411.22682788872 
676	 3439.94264760133 
677	 3469.17079827582 
678	 3499.80387082137 
679	 3533.52494527521 
680	 3570.22386842981 
681	 3605.41467887606 
682	 3644.76809786455 
683	 3687.44425950601 
684	 3731.02595579532 
685	 3780.12376919391 
686	 3833.00114396356 
687	 3889.61430395657 
688	 3952.37824012258 
689	 4023.26848595547 
690	 4102.96243839001 
691	 4192.12454875702 
692	 4292.39554396389 
693	 4405.80509092208 
694	 4534.13988831636 
695	 4679.03512803722 
696	 4842.44897991362 
697	 5024.99719929898 
698	 5226.50185731902 
699	 5445.7352096014 
700	 5687.65887235662 
701	 5947.18862504229 
702	 6217.89833344322 
703	 6503.92341859369 
704	 6800.6422737325 
705	 7105.10609209394 
706	 7416.31546016242 
707	 7735.53020141063 
708	 8062.28867948613 
709	 8395.86906551035 
710	 8735.63376439826 
711	 9081.89530332486 
712	 9434.27510354159 
713	 9792.41741706654 
714	 10158.1405385839 
715	 10527.9692655255 
716	 10900.1309805551 
717	 11275.2467471426 
718	 11652.9948278204 
719	 12036.5343464057 
720	 12426.8265772916 
721	 12817.5092614379 
722	 13203.2184104545 
723	 13586.341025223 
724	 13972.2151914979 
725	 14352.2256588153 
726	 14726.9917008006 
727	 15098.0130434507 
728	 15466.6637517629 
729	 15826.2583884968 
730	 16181.0099025519 
731	 16534.1190485426 
732	 16874.7199676232 
733	 17208.5670712439 
734	 17536.7978840376 
735	 17857.3242145667 
736	 18168.2035920898 
737	 18471.0531914119 
738	 18767.4556440088 
739	 19058.0740504128 
740	 19344.0028052599 
741	 19622.6968193092 
742	 19892.0641550117 
743	 20157.4761402824 
744	 20406.7105848114 
745	 20637.4946186023 
746	 20857.2394920798 
747	 21089.7278508069 
748	 21319.3152323195 
749	 21538.8576476466 
750	 21765.7895471787 
751	 21981.6410790443 
752	 22192.1820069879 
753	 22405.057142833 
754	 22603.7845416642 
755	 22800.8694648299 
756	 23000.5085207404 
757	 23199.6113348695 
758	 23393.271255791 
759	 23575.6304531129 
760	 23748.8433174485 
761	 23927.7198324609 
762	 24109.6550800726 
763	 24291.381501347 
764	 24468.4560371023 
765	 24635.3555522587 
766	 24794.5586162121 
767	 24948.4921397554 
768	 25099.2514343477 
769	 25247.1069723513 
770	 25388.8187271689 
771	 25529.7413132499 
772	 25688.8950124694 
773	 25839.5683815671 
774	 25971.853528504 
775	 26083.9504302656 
776	 26182.3432038154 
777	 26270.9726657377 
778	 26350.277651034 
779	 26420.4161917265 
780	 26497.536649516 
781	 26569.2996750638 
782	 26629.6287115507 
783	 26684.4811146287 
784	 26737.7637863644 
785	 26787.6257489134 
786	 26830.7796081366 
787	 26864.2025128429 
788	 26894.5108243984 
789	 26919.3831538815 
790	 26934.339967954 
791	 26948.6326147215 
792	 26957.902197972 
793	 26962.2444236214 
794	 26966.5390995353 
795	 26962.7802698015 
796	 26953.9906487968 
797	 26942.4527924454 
798	 26924.6293123195 
799	 26902.389962559 
800	 26873.1471737794 
801	 26834.3926518309 
802	 26790.9237068402 
803	 26734.2660737159 
804	 26671.489406599 
805	 26618.1580218045 
806	 26558.9594435695 
807	 26497.0753383472 
808	 26435.5652182243 
809	 26374.143846638 
810	 26301.1053189295 
811	 26222.1939441044 
812	 26144.3278555425 
813	 26065.3982203921 
814	 25977.5834520733 
815	 25878.538602872 
816	 25770.200844951 
817	 25660.1151539741 
818	 25546.8524694266 
819	 25430.6124056704 
820	 25313.3772023023 
821	 25195.2835769956 
822	 25072.5673726429 
823	 24944.1386662744 
824	 24814.2092269869 
825	 24681.0486228921 
826	 24545.1725542327 
827	 24406.6686958372 
828	 24261.7308002946 
829	 24120.8598596118 
830	 23981.0224101641 
831	 23834.3875921043 
832	 23688.3394725299 
833	 23539.5973616075 
834	 23386.8646024364 
835	 23231.8192077237 
836	 23081.1020462746 
837	 22934.0557034342 
838	 22789.4677200329 
839	 22647.4861844288 
840	 22505.0054380874 
841	 22364.7449671827 
842	 22227.3824786173 
843	 22082.2775870289 
844	 21942.6849339835 
845	 21807.395937461 
846	 21670.2172877219 
847	 21535.1511120813 
848	 21402.1845335887 
849	 21270.537170166 
850	 21139.3934784798 
851	 21012.7912005557 
852	 20884.0816480869 
853	 20752.6532166841 
854	 20626.9469227398 
855	 20496.4848922493 
856	 20363.6836776067 
857	 20232.9783346233 
858	 20106.5901885152 
859	 19984.3748996189 
860	 19866.768527621 
861	 19751.7266399964 
862	 19629.6764748955 
863	 19497.1947199019 
864	 19362.0706256387 
865	 19234.5779312967 
866	 19101.3744986455 
867	 18966.5348267503 
868	 18832.3874691283 
869	 18698.5757976814 
870	 18564.9597979692 
871	 18429.049250788 
872	 18290.8300616382 
873	 18153.7805314494 
874	 18013.4849756618 
875	 17872.2180086797 
876	 17731.7954691884 
877	 17589.8807174713 
878	 17449.1598952811 
879	 17309.0901328398 
880	 17167.9298796014 
881	 17023.4791945199 
882	 16878.859817568 
883	 16736.0181411948 
884	 16595.0119395355 
885	 16450.4720371986 
886	 16306.1489255025 
887	 16160.9574193339 
888	 16011.5736717568 
889	 15865.5039723211 
890	 15719.8933621954 
891	 15574.2946888947 
892	 15431.0116336114 
893	 15282.5558914022 
894	 15135.3203448314 
895	 14991.6280521786 
896	 14845.3008196362 
897	 14702.9151943513 
898	 14561.4466298904 
899	 14418.5632295965 
900	 14277.4248736516 
901	 14137.5760886084 
902	 13997.1312178893 
903	 13854.7395959197 
904	 13711.1625454234 
905	 13572.8453974707 
906	 13437.6732102541 
907	 13301.479906184 
908	 13166.5329586514 
909	 13029.8571499365 
910	 12894.2974861443 
911	 12763.886012685 
912	 12633.1099780075 
913	 12502.005407273 
914	 12370.3126082087 
915	 12238.0971640052 
916	 12109.0847890687 
917	 11983.6211088831 
918	 11859.2175453608 
919	 11731.9951762666 
920	 11604.6018408114 
921	 11480.8452272341 
922	 11359.7215498041 
923	 11235.4939275935 
924	 11112.5605685889 
925	 10988.5283133306 
926	 10863.6425150587 
927	 10742.6218409624 
928	 10620.2226791725 
929	 10497.6398626123 
930	 10375.5592996552 
931	 10251.7936510511 
932	 10131.04928707 
933	 10010.6113840128 
934	 9888.5819940313 
935	 9768.0946575509 
936	 9652.16789534655 
937	 9538.30765518578 
938	 9423.60705425628 
939	 9308.11587787186 
940	 9195.68272810281 
941	 9083.74811610715 
942	 8969.36620339681 
943	 8854.3570638131 
944	 8739.16410252892 
945	 8624.78901518738 
946	 8511.68643576516 
947	 8398.17830633312 
948	 8286.67552093174 
949	 8173.48964357991 
950	 8056.34289672939 
951	 7945.8265257552 
952	 7836.36982994751 
953	 7727.20044389417 
954	 7619.17743084219 
955	 7511.06748921016 
956	 7402.93852061515 
957	 7295.09471708067 
958	 7188.3922335164 
959	 7085.44270133088 
960	 6982.08082596199 
961	 6879.12831376811 
962	 6778.74652159344 
963	 6677.30583695498 
964	 6577.03009649047 
965	 6478.48038917088 
966	 6381.10701407883 
967	 6284.34708342345 
968	 6185.11118622691 
969	 6088.02384009581 
970	 5997.96643125634 
971	 5903.17623010099 
972	 5811.5865193016 
973	 5721.09742288689 
974	 5627.30526540156 
975	 5540.49400764589 
976	 5451.96005668426 
977	 5363.01576216639 
978	 5278.04948975849 
979	 5190.53088286323 
980	 5106.55399768671 
981	 5023.97641023809 
982	 4939.1052348543 
983	 4859.18571623891 
984	 4778.87760702722 
985	 4698.76828928289 
986	 4620.89972927337 
987	 4541.7745965335 
988	 4463.8623522691 
989	 4387.01637641742 
990	 4310.67744262694 
991	 4236.68988780977 
992	 4165.24409872842 
993	 4094.00808676344 
994	 4021.10052681742 
995	 3948.65168521674 
996	 3877.95960225229 
997	 3808.69464816 
998	 3740.46072961242 
999	 3674.48629232216 
1000	 3608.26221660401 
1001	 7905.48868147442 
1002	 7946.10378961915 
1003	 7987.91007071178 
1004	 8032.1711963138 
1005	 8076.35328355055 
1006	 8122.6165705155 
1007	 8173.02123480523 
1008	 8237.66290538189 
1009	 8301.53842077629 
1010	 8361.31883323659 
1011	 8425.60752605063 
1012	 8491.4034315863 
1013	 8552.20214399162 
1014	 8624.17079150061 
1015	 8706.48489456121 
1016	 8785.48524662101 
1017	 8867.14464048865 
1018	 8947.91518518893 
1019	 9027.88371563405 
1020	 9114.05742440535 
1021	 9206.9450037881 
1022	 9297.59638327091 
1023	 9389.71357229188 
1024	 9482.71570802025 
1025	 9571.02626541299 
1026	 9656.59807843957 
1027	 9738.29161851822 
1028	 9818.6568041836 
1029	 9891.82014782775 
1030	 9961.05272367535 
1031	 10028.3392075006 
1032	 10088.5295585918 
1033	 10143.4438514725 
1034	 10197.9723356061 
1035	 10246.2968752713 
1036	 10289.5544966793 
1037	 10332.7193108912 
1038	 10368.7535788288 
1039	 10398.4727706564 
1040	 10427.4214759426 
1041	 10455.9857354157 
1042	 10478.614688929 
1043	 10494.9678056351 
1044	 10507.3845914877 
1045	 10514.4599420494 
1046	 10519.1982715459 
1047	 10523.8464756296 
1048	 10527.2258121341 
1049	 10530.8954063627 
1050	 10538.0461012702 
1051	 10542.6832624186 
1052	 10545.771755041 
1053	 10552.6155988805 
1054	 10560.545414822 
1055	 10567.3910058498 
1056	 10579.6211639211 
1057	 10599.2967556895 
1058	 10618.6676711385 
1059	 10635.1082215956 
1060	 10658.5834542114 
1061	 10685.2293670837 
1062	 10712.0718923417 
1063	 10754.1852185189 
1064	 10800.1494893161 
1065	 10846.5824842694 
1066	 10905.2850745126 
1067	 10966.7446491036 
1068	 11032.2147990779 
1069	 11098.9053175738 
1070	 11174.960348759 
1071	 11258.4256712257 
1072	 11346.0153197223 
1073	 11444.6053351918 
1074	 11553.6467916446 
1075	 11665.4957793027 
1076	 11785.2140157387 
1077	 11909.3396310492 
1078	 12038.0581513731 
1079	 12173.994835916 
1080	 12316.1290547304 
1081	 12463.9187182104 
1082	 12620.3162959741 
1083	 12781.3493550433 
1084	 12944.2975283912 
1085	 13110.7118602495 
1086	 13277.0365507213 
1087	 13439.9978506325 
1088	 13604.4406759969 
1089	 13762.822229615 
1090	 13920.0407247551 
1091	 14088.3170859869 
1092	 14251.0525369454 
1093	 14409.9850155495 
1094	 14571.2852274057 
1095	 14727.8263581223 
1096	 14878.9315321093 
1097	 15023.7621513813 
1098	 15169.3062523878 
1099	 15310.1629178004 
1100	 15443.2830484896 
1101	 15577.5037035961 
1102	 15711.5176513756 
1103	 15843.4910607986 
1104	 15973.8470776004 
1105	 16095.6293926142 
1106	 16213.8603238544 
1107	 16327.8218979612 
1108	 16439.0095109884 
1109	 16544.2498027263 
1110	 16649.0133347134 
1111	 16754.5475832458 
1112	 16849.882598969 
1113	 16944.8161411335 
1114	 17034.92584409 
1115	 17121.0740214927 
1116	 17212.4945568421 
1117	 17300.0127162722 
1118	 17386.5956869352 
1119	 17469.2593612917 
1120	 17546.5896259678 
1121	 17626.2507329738 
1122	 17702.2661509311 
1123	 17782.8585716928 
1124	 17869.059270286 
1125	 17952.3801651817 
1126	 18036.3675589702 
1127	 18117.7405071204 
1128	 18198.8623626584 
1129	 18277.5205648672 
1130	 18350.5967169287 
1131	 18418.3214187248 
1132	 18483.8024432524 
1133	 18540.511218602 
1134	 18605.0911423416 
1135	 18671.5442300914 
1136	 18735.7995130046 
1137	 18802.2083852411 
1138	 18866.6436310249 
1139	 18932.9390425361 
1140	 18992.5298290701 
1141	 19051.7650088457 
1142	 19103.1129609207 
1143	 19149.2952702549 
1144	 19190.7014479031 
1145	 19227.9791399198 
1146	 19268.4989983818 
1147	 19313.6201185198 
1148	 19360.8938551803 
1149	 19405.938749151 
1150	 19456.5905952724 
1151	 19502.8294290105 
1152	 19543.3283684343 
1153	 19585.9496168163 
1154	 19627.4459379194 
1155	 19673.4973525254 
1156	 19721.9920230257 
1157	 19770.765538193 
1158	 19819.5066246126 
1159	 19865.2685800765 
1160	 19909.4685185249 
1161	 19954.1370847307 
1162	 19995.8649387328 
1163	 20038.7831192379 
1164	 20079.0332862659 
1165	 20116.0393673708 
1166	 20150.1019181077 
1167	 20182.068186905 
1168	 20214.0591687112 
1169	 20241.9926655908 
1170	 20270.4307282704 
1171	 20298.1801581324 
1172	 20331.1827156088 
1173	 20354.6320576332 
1174	 20374.2163628502 
1175	 20398.6172740953 
1176	 20422.3843489323 
1177	 20445.5320154638 
