Wavelength	spectrum00011.asd
350	 16.2553202807149 
351	 15.9997021452332 
352	 16.155363618362 
353	 17.1468807169981 
354	 18.7725129315115 
355	 19.7190368061219 
356	 20.7293996941991 
357	 21.9992847169707 
358	 23.2083412377901 
359	 24.317012678682 
360	 25.7701305315964 
361	 27.3465568478042 
362	 26.6683860018959 
363	 29.0128729279004 
364	 32.9956358492266 
365	 34.959315542804 
366	 36.8372470402945 
367	 38.7443411274597 
368	 40.3593092597597 
369	 40.9980556682427 
370	 43.5735737281653 
371	 46.5976524441826 
372	 48.4664166453556 
373	 51.1856181017996 
374	 53.4957406798027 
375	 55.4959387516276 
376	 58.042883237005 
377	 59.7498832547242 
378	 61.6255870538995 
379	 64.3185260286893 
380	 67.2402529093559 
381	 69.9995914946175 
382	 73.0378995523473 
383	 76.7550581381676 
384	 79.7778816975728 
385	 80.942123986619 
386	 81.312821513233 
387	 84.1650040852973 
388	 88.3302883607768 
389	 92.2783393118577 
390	 95.2080268137788 
391	 98.8682400715982 
392	 102.209548382512 
393	 105.153440382576 
394	 108.126162776308 
395	 110.346436630545 
396	 113.695872904177 
397	 118.835326443556 
398	 123.837518280871 
399	 128.411870684467 
400	 132.252692722564 
401	 135.52219531195 
402	 140.133066411137 
403	 144.90138445855 
404	 149.32403349909 
405	 153.812934702319 
406	 159.537702886772 
407	 166.011706677348 
408	 172.290343525978 
409	 176.982038814297 
410	 184.369728844556 
411	 192.40441212209 
412	 196.257743474062 
413	 205.682129683893 
414	 214.56802258236 
415	 220.204930493455 
416	 230.22255830587 
417	 239.433237055842 
418	 247.514504824779 
419	 255.830921862864 
420	 264.875137194225 
421	 276.009023750011 
422	 287.801861374127 
423	 295.774057496116 
424	 306.525697498324 
425	 318.364110010715 
426	 328.976813650427 
427	 341.05815213444 
428	 354.655217818302 
429	 368.114154794522 
430	 379.014411272688 
431	 391.549324798016 
432	 404.431584444828 
433	 416.369730042336 
434	 427.731350751162 
435	 440.549748443548 
436	 454.252498633592 
437	 467.312382816982 
438	 480.575515698126 
439	 494.006520170644 
440	 507.037153370282 
441	 518.429745139412 
442	 530.358550961617 
443	 542.972541112526 
444	 555.712845725907 
445	 567.939639507246 
446	 579.495741760113 
447	 590.565311766574 
448	 601.572200672004 
449	 611.453906507307 
450	 621.481146321167 
451	 632.159260673738 
452	 640.735601363014 
453	 647.884937045802 
454	 655.241317777573 
455	 664.362160000033 
456	 669.956416339426 
457	 675.647675924487 
458	 683.153706026813 
459	 688.662795656768 
460	 694.935496621843 
461	 700.698387805839 
462	 704.081691731151 
463	 708.180539839762 
464	 713.073974337355 
465	 718.047926881737 
466	 721.7113704107 
467	 726.792579595122 
468	 732.024850466244 
469	 736.089063459434 
470	 741.535933790048 
471	 746.831772448085 
472	 751.585818515988 
473	 756.396010139977 
474	 761.722127531957 
475	 767.174555834343 
476	 772.498766116411 
477	 778.087658645254 
478	 784.923570121773 
479	 792.222592655952 
480	 798.443371059539 
481	 804.390221238511 
482	 810.720652691135 
483	 817.557694269226 
484	 824.150359070762 
485	 830.574917027012 
486	 837.803387917666 
487	 846.197481160242 
488	 850.742147695106 
489	 857.545960091372 
490	 867.171676196088 
491	 873.169068015126 
492	 880.737141531621 
493	 890.312571118613 
494	 900.845255225424 
495	 910.464414529016 
496	 920.083269498491 
497	 930.57891380007 
498	 942.695384798359 
499	 955.991990322936 
500	 969.482090882699 
501	 982.943528942926 
502	 998.168678484936 
503	 1015.37308523354 
504	 1033.10934760385 
505	 1049.49047436239 
506	 1067.32517612594 
507	 1087.20041538638 
508	 1109.04583045143 
509	 1132.25296836827 
510	 1155.43486284611 
511	 1180.10040827472 
512	 1208.06792005057 
513	 1236.35783797517 
514	 1266.20316112029 
515	 1298.22738716638 
516	 1332.02984379916 
517	 1369.12801364816 
518	 1407.51022462464 
519	 1445.8068936108 
520	 1488.62594843112 
521	 1532.88466610422 
522	 1577.90134607421 
523	 1624.89594196174 
524	 1670.9995643484 
525	 1717.62135533703 
526	 1766.16191137436 
527	 1816.24430663498 
528	 1864.6903455494 
529	 1911.48493735637 
530	 1958.40101636066 
531	 2005.43239886805 
532	 2052.76342135098 
533	 2100.50537198148 
534	 2148.99644113882 
535	 2193.91236661472 
536	 2236.24776082295 
537	 2278.80787172475 
538	 2321.53775918901 
539	 2362.99868289927 
540	 2402.54767442939 
541	 2440.65636226557 
542	 2478.72073064608 
543	 2517.96976971991 
544	 2558.88595909779 
545	 2599.82821521871 
546	 2640.25180038705 
547	 2679.74318919629 
548	 2718.09354765383 
549	 2756.69799791379 
550	 2795.34154737884 
551	 2833.18443898437 
552	 2868.75242770791 
553	 2902.30289573694 
554	 2933.61413968404 
555	 2962.26696259403 
556	 2988.37787408648 
557	 3011.61158310799 
558	 3031.91563876953 
559	 3049.96846305548 
560	 3064.18387022385 
561	 3074.42903279197 
562	 3081.16101713778 
563	 3084.49044816468 
564	 3084.77097332051 
565	 3082.017828579 
566	 3075.79342217051 
567	 3067.35498560572 
568	 3057.6888354501 
569	 3047.30502142287 
570	 3034.58894707312 
571	 3025.44216347966 
572	 3021.08321278522 
573	 3018.54266137306 
574	 3019.68029956913 
575	 3021.36778800277 
576	 3022.91055786182 
577	 3032.80689788456 
578	 3044.69641925677 
579	 3057.44322880835 
580	 3072.80939502039 
581	 3091.77172007901 
582	 3108.79437418936 
583	 3121.75546347588 
584	 3136.68224739629 
585	 3144.84259223569 
586	 3148.45072649246 
587	 3152.98635888286 
588	 3156.4620216997 
589	 3159.17916259202 
590	 3161.45990308083 
591	 3163.52686759014 
592	 3163.32256457895 
593	 3160.2634532077 
594	 3154.92839540717 
595	 3150.20271578695 
596	 3144.36235457896 
597	 3139.26854923386 
598	 3139.25501065474 
599	 3138.89005483616 
600	 3138.64256974189 
601	 3139.06378103353 
602	 3138.00915723875 
603	 3137.90883652526 
604	 3137.68408007297 
605	 3134.73812975411 
606	 3129.6654812735 
607	 3125.29246250324 
608	 3122.28907540125 
609	 3117.43430627789 
610	 3111.98271420957 
611	 3106.4952574971 
612	 3101.17958571271 
613	 3095.10090138428 
614	 3090.04192590918 
615	 3086.39669641273 
616	 3082.98795899518 
617	 3081.03258030014 
618	 3080.18868387607 
619	 3080.16429771243 
620	 3081.80600696457 
621	 3086.16646850912 
622	 3092.39573035541 
623	 3098.43829115698 
624	 3104.13883572428 
625	 3112.37611747391 
626	 3123.55538228263 
627	 3132.00576753672 
628	 3141.4307591794 
629	 3151.86595053246 
630	 3161.72906548164 
631	 3168.59595640686 
632	 3174.88103838674 
633	 3180.92903773338 
634	 3184.01922624002 
635	 3184.66448338726 
636	 3181.71431239221 
637	 3175.14991818011 
638	 3170.11130438627 
639	 3164.95480155104 
640	 3158.40605058605 
641	 3149.70519919861 
642	 3139.90344885613 
643	 3131.2115048182 
644	 3124.6566612379 
645	 3118.33372869969 
646	 3111.9125072089 
647	 3106.18014692659 
648	 3102.21651348174 
649	 3098.19733085796 
650	 3097.91812332603 
651	 3101.52134755312 
652	 3103.50369582085 
653	 3108.03091222453 
654	 3113.51724858306 
655	 3117.88183297283 
656	 3123.64828821323 
657	 3128.91382756517 
658	 3134.79707134951 
659	 3144.39926221096 
660	 3150.01434506381 
661	 3156.96690785089 
662	 3169.13821998436 
663	 3182.00976073108 
664	 3193.0215873712 
665	 3203.73527864572 
666	 3217.34100076527 
667	 3232.13156996655 
668	 3248.08481255458 
669	 3266.02280349357 
670	 3287.73767385518 
671	 3310.24786490483 
672	 3332.98421923209 
673	 3356.56076894875 
674	 3383.152271636 
675	 3411.22682788872 
676	 3439.94264760133 
677	 3469.17079827582 
678	 3499.80387082137 
679	 3533.52494527521 
680	 3570.22386842981 
681	 3605.41467887606 
682	 3644.76809786455 
683	 3687.44425950601 
684	 3731.02595579532 
685	 3780.12376919391 
686	 3833.00114396356 
687	 3889.61430395657 
688	 3952.37824012258 
689	 4023.26848595547 
690	 4102.96243839001 
691	 4192.12454875702 
692	 4292.39554396389 
693	 4405.80509092208 
694	 4534.13988831636 
695	 4679.03512803722 
696	 4842.44897991362 
697	 5024.99719929898 
698	 5226.50185731902 
699	 5445.7352096014 
700	 5687.65887235662 
701	 5947.18862504229 
702	 6217.89833344322 
703	 6503.92341859369 
704	 6800.6422737325 
705	 7105.10609209394 
706	 7416.31546016242 
707	 7735.53020141063 
708	 8062.28867948613 
709	 8395.86906551035 
710	 8735.63376439826 
711	 9081.89530332486 
712	 9434.27510354159 
713	 9792.41741706654 
714	 10158.1405385839 
715	 10527.9692655255 
716	 10900.1309805551 
717	 11275.2467471426 
718	 11652.9948278204 
719	 12036.5343464057 
720	 12426.8265772916 
721	 12817.5092614379 
722	 13203.2184104545 
723	 13586.341025223 
724	 13972.2151914979 
725	 14352.2256588153 
726	 14726.9917008006 
727	 15098.0130434507 
728	 15466.6637517629 
729	 15826.2583884968 
730	 16181.0099025519 
731	 16534.1190485426 
732	 16874.7199676232 
733	 17208.5670712439 
734	 17536.7978840376 
735	 17857.3242145667 
736	 18168.2035920898 
737	 18471.0531914119 
738	 18767.4556440088 
739	 19058.0740504128 
740	 19344.0028052599 
741	 19622.6968193092 
742	 19892.0641550117 
743	 20157.4761402824 
744	 20406.7105848114 
745	 20637.4946186023 
746	 20857.2394920798 
747	 21089.7278508069 
748	 21319.3152323195 
749	 21538.8576476466 
750	 21765.7895471787 
751	 21981.6410790443 
752	 22192.1820069879 
753	 22405.057142833 
754	 22603.7845416642 
755	 22800.8694648299 
756	 23000.5085207404 
757	 23199.6113348695 
758	 23393.271255791 
759	 23575.6304531129 
760	 23748.8433174485 
761	 23927.7198324609 
762	 24109.6550800726 
763	 24291.381501347 
764	 24468.4560371023 
765	 24635.3555522587 
766	 24794.5586162121 
767	 24948.4921397554 
768	 25099.2514343477 
769	 25247.1069723513 
770	 25388.8187271689 
771	 25529.7413132499 
772	 25688.8950124694 
773	 25839.5683815671 
774	 25971.853528504 
775	 26083.9504302656 
776	 26182.3432038154 
777	 26270.9726657377 
778	 26350.277651034 
779	 26420.4161917265 
780	 26497.536649516 
781	 26569.2996750638 
782	 26629.6287115507 
783	 26684.4811146287 
784	 26737.7637863644 
785	 26787.6257489134 
786	 26830.7796081366 
787	 26864.2025128429 
788	 26894.5108243984 
789	 26919.3831538815 
790	 26934.339967954 
791	 26948.6326147215 
792	 26957.902197972 
793	 26962.2444236214 
794	 26966.5390995353 
795	 26962.7802698015 
796	 26953.9906487968 
797	 26942.4527924454 
798	 26924.6293123195 
799	 26902.389962559 
800	 26873.1471737794 
801	 26834.3926518309 
802	 26790.9237068402 
803	 26734.2660737159 
804	 26671.489406599 
805	 26618.1580218045 
806	 26558.9594435695 
807	 26497.0753383472 
808	 26435.5652182243 
809	 26374.143846638 
810	 26301.1053189295 
811	 26222.1939441044 
812	 26144.3278555425 
813	 26065.3982203921 
814	 25977.5834520733 
815	 25878.538602872 
816	 25770.200844951 
817	 25660.1151539741 
818	 25546.8524694266 
819	 25430.6124056704 
820	 25313.3772023023 
821	 25195.2835769956 
822	 25072.5673726429 
823	 24944.1386662744 
824	 24814.2092269869 
825	 24681.0486228921 
826	 24545.1725542327 
827	 24406.6686958372 
828	 24261.7308002946 
829	 24120.8598596118 
830	 23981.0224101641 
831	 23834.3875921043 
832	 23688.3394725299 
833	 23539.5973616075 
834	 23386.8646024364 
835	 23231.8192077237 
836	 23081.1020462746 
837	 22934.0557034342 
838	 22789.4677200329 
839	 22647.4861844288 
840	 22505.0054380874 
841	 22364.7449671827 
842	 22227.3824786173 
843	 22082.2775870289 
844	 21942.6849339835 
845	 21807.395937461 
846	 21670.2172877219 
847	 21535.1511120813 
848	 21402.1845335887 
849	 21270.537170166 
850	 21139.3934784798 
851	 21012.7912005557 
852	 20884.0816480869 
853	 20752.6532166841 
854	 20626.9469227398 
855	 20496.4848922493 
856	 20363.6836776067 
857	 20232.9783346233 
858	 20106.5901885152 
859	 19984.3748996189 
860	 19866.768527621 
861	 19751.7266399964 
862	 19629.6764748955 
863	 19497.1947199019 
864	 19362.0706256387 
865	 19234.5779312967 
866	 19101.3744986455 
867	 18966.5348267503 
868	 18832.3874691283 
869	 18698.5757976814 
870	 18564.9597979692 
871	 18429.049250788 
872	 18290.8300616382 
873	 18153.7805314494 
874	 18013.4849756618 
875	 17872.2180086797 
876	 17731.7954691884 
877	 17589.8807174713 
878	 17449.1598952811 
879	 17309.0901328398 
880	 17167.9298796014 
881	 17023.4791945199 
882	 16878.859817568 
883	 16736.0181411948 
884	 16595.0119395355 
885	 16450.4720371986 
886	 16306.1489255025 
887	 16160.9574193339 
888	 16011.5736717568 
889	 15865.5039723211 
890	 15719.8933621954 
891	 15574.2946888947 
892	 15431.0116336114 
893	 15282.5558914022 
894	 15135.3203448314 
895	 14991.6280521786 
896	 14845.3008196362 
897	 14702.9151943513 
898	 14561.4466298904 
899	 14418.5632295965 
900	 14277.4248736516 
901	 14137.5760886084 
902	 13997.1312178893 
903	 13854.7395959197 
904	 13711.1625454234 
905	 13572.8453974707 
906	 13437.6732102541 
907	 13301.479906184 
908	 13166.5329586514 
909	 13029.8571499365 
910	 12894.2974861443 
911	 12763.886012685 
912	 12633.1099780075 
913	 12502.005407273 
914	 12370.3126082087 
915	 12238.0971640052 
916	 12109.0847890687 
917	 11983.6211088831 
918	 11859.2175453608 
919	 11731.9951762666 
920	 11604.6018408114 
921	 11480.8452272341 
922	 11359.7215498041 
923	 11235.4939275935 
924	 11112.5605685889 
925	 10988.5283133306 
926	 10863.6425150587 
927	 10742.6218409624 
928	 10620.2226791725 
929	 10497.6398626123 
930	 10375.5592996552 
931	 10251.7936510511 
932	 10131.04928707 
933	 10010.6113840128 
934	 9888.5819940313 
935	 9768.0946575509 
936	 9652.16789534655 
937	 9538.30765518578 
938	 9423.60705425628 
939	 9308.11587787186 
940	 9195.68272810281 
941	 9083.74811610715 
942	 8969.36620339681 
943	 8854.3570638131 
944	 8739.16410252892 
945	 8624.78901518738 
946	 8511.68643576516 
947	 8398.17830633312 
948	 8286.67552093174 
949	 8173.48964357991 
950	 8056.34289672939 
951	 7945.8265257552 
952	 7836.36982994751 
953	 7727.20044389417 
954	 7619.17743084219 
955	 7511.06748921016 
956	 7402.93852061515 
957	 7295.09471708067 
958	 7188.3922335164 
959	 7085.44270133088 
960	 6982.08082596199 
961	 6879.12831376811 
962	 6778.74652159344 
963	 6677.30583695498 
964	 6577.03009649047 
965	 6478.48038917088 
966	 6381.10701407883 
967	 6284.34708342345 
968	 6185.11118622691 
969	 6088.02384009581 
970	 5997.96643125634 
971	 5903.17623010099 
972	 5811.5865193016 
973	 5721.09742288689 
974	 5627.30526540156 
975	 5540.49400764589 
976	 5451.96005668426 
977	 5363.01576216639 
978	 5278.04948975849 
979	 5190.53088286323 
980	 5106.55399768671 
981	 5023.97641023809 
982	 4939.1052348543 
983	 4859.18571623891 
984	 4778.87760702722 
985	 4698.76828928289 
986	 4620.89972927337 
987	 4541.7745965335 
988	 4463.8623522691 
989	 4387.01637641742 
990	 4310.67744262694 
991	 4236.68988780977 
992	 4165.24409872842 
993	 4094.00808676344 
994	 4021.10052681742 
995	 3948.65168521674 
996	 3877.95960225229 
997	 3808.69464816 
998	 3740.46072961242 
999	 3674.48629232216 
1000	 3608.26221660401 
1001	 7905.48868147442 
1002	 7946.10378961915 
1003	 7987.91007071178 
1004	 8032.1711963138 
1005	 8076.35328355055 
1006	 8122.6165705155 
1007	 8173.02123480523 
1008	 8237.66290538189 
1009	 8301.53842077629 
1010	 8361.31883323659 
1011	 8425.60752605063 
1012	 8491.4034315863 
1013	 8552.20214399162 
1014	 8624.17079150061 
1015	 8706.48489456121 
1016	 8785.48524662101 
1017	 8867.14464048865 
1018	 8947.91518518893 
1019	 9027.88371563405 
1020	 9114.05742440535 
1021	 9206.9450037881 
1022	 9297.59638327091 
1023	 9389.71357229188 
1024	 9482.71570802025 
1025	 9571.02626541299 
1026	 9656.59807843957 
1027	 9738.29161851822 
1028	 9818.6568041836 
1029	 9891.82014782775 
1030	 9961.05272367535 
1031	 10028.3392075006 
1032	 10088.5295585918 
1033	 10143.4438514725 
1034	 10197.9723356061 
1035	 10246.2968752713 
1036	 10289.5544966793 
1037	 10332.7193108912 
1038	 10368.7535788288 
1039	 10398.4727706564 
1040	 10427.4214759426 
1041	 10455.9857354157 
1042	 10478.614688929 
1043	 10494.9678056351 
1044	 10507.3845914877 
1045	 10514.4599420494 
1046	 10519.1982715459 
1047	 10523.8464756296 
1048	 10527.2258121341 
1049	 10530.8954063627 
1050	 10538.0461012702 
1051	 10542.6832624186 
1052	 10545.771755041 
1053	 10552.6155988805 
1054	 10560.545414822 
1055	 10567.3910058498 
1056	 10579.6211639211 
1057	 10599.2967556895 
1058	 10618.6676711385 
1059	 10635.1082215956 
1060	 10658.5834542114 
1061	 10685.2293670837 
1062	 10712.0718923417 
1063	 10754.1852185189 
1064	 10800.1494893161 
1065	 10846.5824842694 
1066	 10905.2850745126 
1067	 10966.7446491036 
1068	 11032.2147990779 
1069	 11098.9053175738 
1070	 11174.960348759 
1071	 11258.4256712257 
1072	 11346.0153197223 
1073	 11444.6053351918 
1074	 11553.6467916446 
1075	 11665.4957793027 
1076	 11785.2140157387 
1077	 11909.3396310492 
1078	 12038.0581513731 
1079	 12173.994835916 
1080	 12316.1290547304 
1081	 12463.9187182104 
1082	 12620.3162959741 
1083	 12781.3493550433 
1084	 12944.2975283912 
1085	 13110.7118602495 
1086	 13277.0365507213 
1087	 13439.9978506325 
1088	 13604.4406759969 
1089	 13762.822229615 
1090	 13920.0407247551 
1091	 14088.3170859869 
1092	 14251.0525369454 
1093	 14409.9850155495 
1094	 14571.2852274057 
1095	 14727.8263581223 
1096	 14878.9315321093 
1097	 15023.7621513813 
1098	 15169.3062523878 
1099	 15310.1629178004 
1100	 15443.2830484896 
1101	 15577.5037035961 
1102	 15711.5176513756 
1103	 15843.4910607986 
1104	 15973.8470776004 
1105	 16095.6293926142 
1106	 16213.8603238544 
1107	 16327.8218979612 
1108	 16439.0095109884 
1109	 16544.2498027263 
1110	 16649.0133347134 
1111	 16754.5475832458 
1112	 16849.882598969 
1113	 16944.8161411335 
1114	 17034.92584409 
1115	 17121.0740214927 
1116	 17212.4945568421 
1117	 17300.0127162722 
1118	 17386.5956869352 
1119	 17469.2593612917 
1120	 17546.5896259678 
1121	 17626.2507329738 
1122	 17702.2661509311 
1123	 17782.8585716928 
1124	 17869.059270286 
1125	 17952.3801651817 
1126	 18036.3675589702 
1127	 18117.7405071204 
1128	 18198.8623626584 
1129	 18277.5205648672 
1130	 18350.5967169287 
1131	 18418.3214187248 
1132	 18483.8024432524 
1133	 18540.511218602 
1134	 18605.0911423416 
1135	 18671.5442300914 
1136	 18735.7995130046 
1137	 18802.2083852411 
1138	 18866.6436310249 
1139	 18932.9390425361 
1140	 18992.5298290701 
1141	 19051.7650088457 
1142	 19103.1129609207 
1143	 19149.2952702549 
1144	 19190.7014479031 
1145	 19227.9791399198 
1146	 19268.4989983818 
1147	 19313.6201185198 
1148	 19360.8938551803 
1149	 19405.938749151 
1150	 19456.5905952724 
1151	 19502.8294290105 
1152	 19543.3283684343 
1153	 19585.9496168163 
1154	 19627.4459379194 
1155	 19673.4973525254 
1156	 19721.9920230257 
1157	 19770.765538193 
1158	 19819.5066246126 
1159	 19865.2685800765 
1160	 19909.4685185249 
1161	 19954.1370847307 
1162	 19995.8649387328 
1163	 20038.7831192379 
1164	 20079.0332862659 
1165	 20116.0393673708 
1166	 20150.1019181077 
1167	 20182.068186905 
1168	 20214.0591687112 
1169	 20241.9926655908 
1170	 20270.4307282704 
1171	 20298.1801581324 
1172	 20331.1827156088 
1173	 20354.6320576332 
1174	 20374.2163628502 
1175	 20398.6172740953 
1176	 20422.3843489323 
1177	 20445.5320154638 
1178	 20472.0469915559 
1179	 20496.1411864818 
1180	 20517.18499485 
1181	 20539.1645973857 
1182	 20563.8301898987 
1183	 20583.3205352639 
1184	 20597.9532327401 
1185	 20615.4924442351 
1186	 20631.0960374715 
1187	 20648.167983131 
1188	 20667.55305074 
1189	 20685.5858636944 
1190	 20707.3851908229 
1191	 20729.8956257383 
1192	 20754.5512977931 
1193	 20784.983073215 
1194	 20810.1095180149 
1195	 20831.3578905358 
1196	 20857.4331446625 
1197	 20882.8985945958 
1198	 20911.3219935753 
1199	 20946.4748383191 
1200	 20977.0910398087 
1201	 21004.3057900967 
1202	 21035.2551497567 
1203	 21065.5392052688 
1204	 21098.172562676 
1205	 21135.0374861477 
1206	 21174.536593847 
1207	 21208.241699357 
1208	 21238.3085043326 
1209	 21273.0022079831 
1210	 21304.7479883322 
1211	 21342.0825113734 
1212	 21387.7831310212 
1213	 21427.777312981 
1214	 21467.3010197286 
1215	 21505.5734957394 
1216	 21541.9330453795 
1217	 21577.7615034972 
1218	 21611.4244438046 
1219	 21647.2448608258 
1220	 21686.5707071282 
1221	 21720.6134011546 
1222	 21753.0958042476 
1223	 21784.8723304062 
1224	 21816.6902602689 
1225	 21842.9479600782 
1226	 21875.3514778965 
1227	 21918.3356109771 
1228	 21945.3058986398 
1229	 21966.701311658 
1230	 21986.5358238165 
1231	 21995.1186788902 
1232	 22007.9756640165 
1233	 22024.6183769236 
1234	 22036.6274990668 
1235	 22044.8386461158 
1236	 22052.8357470455 
1237	 22059.5181229543 
1238	 22064.9131700158 
1239	 22067.5637370025 
1240	 22069.5948775466 
1241	 22067.5777754581 
1242	 22061.8673416591 
1243	 22054.8998828001 
1244	 22045.0938426362 
1245	 22034.5706806319 
1246	 22021.1341006869 
1247	 22008.6443684042 
1248	 21995.3200367201 
1249	 21982.0090988808 
1250	 21967.1891879202 
1251	 21954.7260771861 
1252	 21945.2556811993 
1253	 21932.7174520214 
1254	 21919.5012686277 
1255	 21906.3508097176 
1256	 21894.3447872312 
1257	 21882.2500452022 
1258	 21866.5118022914 
1259	 21853.5616799071 
1260	 21833.2592425751 
1261	 21805.2488495146 
1262	 21779.1881428274 
1263	 21750.0439214128 
1264	 21722.9140762863 
1265	 21697.6781623148 
1266	 21668.501227972 
1267	 21644.2356893792 
1268	 21608.5495867357 
1269	 21565.4876654738 
1270	 21518.4345640054 
1271	 21463.4145446689 
1272	 21403.2818626537 
1273	 21346.3290853387 
1274	 21287.5646095823 
1275	 21228.9093566972 
1276	 21174.7994865319 
1277	 21108.0202372413 
1278	 21032.8806327962 
1279	 20961.816123267 
1280	 20879.5387320065 
1281	 20810.7236866863 
1282	 20753.7978769775 
1283	 20689.5591168473 
1284	 20625.7387883297 
1285	 20563.0275657984 
1286	 20494.0457865717 
1287	 20432.9665449281 
1288	 20375.8619481164 
1289	 20323.9432848825 
1290	 20279.1734971773 
1291	 20233.2009139525 
1292	 20194.2588020452 
1293	 20159.871750474 
1294	 20130.5864206354 
1295	 20106.0963508034 
1296	 20085.2260971402 
1297	 20069.2530103413 
1298	 20057.4874621697 
1299	 20050.0883727272 
1300	 20045.7108200795 
1301	 20046.7510657103 
1302	 20048.8511270634 
1303	 20049.7329058844 
1304	 20059.4199091928 
1305	 20076.3271620759 
1306	 20094.851294324 
1307	 20118.792006543 
1308	 20148.6378092627 
1309	 20172.4852852642 
1310	 20192.0642429681 
1311	 20217.2975294913 
1312	 20241.6595139758 
1313	 20269.3787830053 
1314	 20304.0208100129 
1315	 20331.6751548483 
1316	 20356.5809544466 
1317	 20383.5846934831 
1318	 20408.4257991236 
1319	 20435.4549766702 
1320	 20466.7643279289 
1321	 20493.5563208296 
1322	 20517.2626239247 
1323	 20542.8057700019 
1324	 20571.1890207484 
1325	 20593.3994774913 
1326	 20617.4045898508 
1327	 20632.2374268849 
1328	 20644.0339503857 
1329	 20651.0702938209 
1330	 20657.8020890188 
1331	 20660.8910174287 
1332	 20668.6700015989 
1333	 20678.4284907711 
1334	 20682.2276564866 
1335	 20687.8069928919 
1336	 20687.3841114759 
1337	 20678.5435665353 
1338	 20672.6949136513 
1339	 20667.8714586881 
1340	 20658.6360141254 
1341	 20651.6057457595 
1342	 20633.9762292203 
1343	 20608.819600918 
1344	 20582.1922545182 
1345	 20553.2978425398 
1346	 20514.4069266151 
1347	 20474.4529236015 
1348	 20422.6128561951 
1349	 20359.3350774252 
1350	 20278.3788929416 
1351	 20188.3531190205 
1352	 20079.8415014813 
1353	 19979.7701217022 
1354	 19867.5614750577 
1355	 19767.453351184 
1356	 19676.5867200123 
1357	 19578.7431742935 
1358	 19477.9852618739 
1359	 19381.4800549782 
1360	 19263.3364846069 
1361	 19188.1378039039 
1362	 19123.7340599476 
1363	 19091.1412308353 
1364	 19108.9367735478 
1365	 19116.6781838319 
1366	 19146.7950805269 
1367	 19166.8344352181 
1368	 19182.1295674737 
1369	 19198.5550278074 
1370	 19223.2123108918 
1371	 19250.1445846926 
1372	 19269.1236924739 
1373	 19309.2599259305 
1374	 19289.7570198176 
1375	 19263.4202479803 
1376	 19167.2265083533 
1377	 19013.4743751456 
1378	 18841.4638217908 
1379	 18593.0333575801 
1380	 18393.1179156062 
1381	 18155.4713533363 
1382	 17993.8296102295 
1383	 17881.9041713896 
1384	 17776.7142327844 
1385	 17742.8703627452 
1386	 17661.4888692581 
1387	 17591.3171242199 
1388	 17474.640666518 
1389	 17330.1672955749 
1390	 17153.5197866023 
1391	 16945.6090442951 
1392	 16719.2223122778 
1393	 16484.6296405699 
1394	 16252.4829836174 
1395	 16046.4112929748 
1396	 15850.1449867227 
1397	 15663.8981020948 
1398	 15501.134010215 
1399	 15333.0801169268 
1400	 15166.0434347524 
1401	 15005.2524812437 
1402	 14851.7675998793 
1403	 14701.0040036296 
1404	 14550.7376941577 
1405	 14411.0281979412 
1406	 14273.1476330015 
1407	 14151.9016861844 
1408	 14042.6805894969 
1409	 13941.9016553165 
1410	 13861.1987335874 
1411	 13776.2834267881 
1412	 13696.6212225421 
1413	 13617.2280092614 
1414	 13533.9925731708 
1415	 13459.1000770198 
1416	 13397.2269218358 
1417	 13335.0900497022 
1418	 13277.5714151508 
1419	 13228.5835556314 
1420	 13177.0053402396 
1421	 13123.2183255705 
1422	 13075.60719442 
1423	 13030.7596816271 
1424	 12990.9942220871 
1425	 12955.3056910219 
1426	 12921.2100812636 
1427	 12893.3978995667 
1428	 12864.9860800765 
1429	 12837.1531564148 
1430	 12810.9316415323 
1431	 12784.2826428352 
1432	 12762.9741388187 
1433	 12739.5189007824 
1434	 12727.8082221986 
1435	 12729.8260462354 
1436	 12727.6794232787 
1437	 12731.5965018095 
1438	 12733.9395867178 
1439	 12734.7274002663 
1440	 12734.7290399901 
1441	 12735.6517660458 
1442	 12736.873014993 
1443	 12738.1650793865 
1444	 12741.6697949964 
1445	 12747.4255642042 
1446	 12756.7676285152 
1447	 12766.1176240495 
1448	 12777.8743055405 
1449	 12785.9512351691 
1450	 12794.1009501046 
1451	 12801.8598786138 
1452	 12805.7059261903 
1453	 12814.3803039303 
1454	 12825.3639185642 
1455	 12836.2423329025 
1456	 12848.8923359598 
1457	 12862.0389156444 
1458	 12875.8046383741 
1459	 12890.0171291886 
1460	 12906.6744667409 
1461	 12920.5207972242 
1462	 12933.0739678219 
1463	 12946.3360113842 
1464	 12956.7257070241 
1465	 12969.6016030065 
1466	 12981.3450710838 
1467	 12998.326879974 
1468	 13020.5859569474 
1469	 13042.6646276696 
1470	 13064.0193587662 
1471	 13088.7654298494 
1472	 13104.8874372452 
1473	 13125.9167289319 
1474	 13149.9332771402 
1475	 13176.9288456244 
1476	 13202.7776449581 
1477	 13233.6149623171 
1478	 13256.6382518721 
1479	 13273.7765671837 
1480	 13297.2752231194 
1481	 13318.7078726031 
1482	 13345.4803393473 
1483	 13379.5409322167 
1484	 13409.2929323513 
1485	 13438.5572290277 
1486	 13468.2078969542 
1487	 13497.6961116267 
1488	 13526.4619519598 
1489	 13557.2115987768 
1490	 13584.0044964324 
1491	 13606.8362664925 
1492	 13632.3010017763 
1493	 13657.4942104928 
1494	 13681.3978033245 
1495	 13705.9549339085 
1496	 13730.1979902375 
1497	 13752.5962085349 
1498	 13775.0906439174 
1499	 13799.4036467806 
1500	 13821.5052989903 
1501	 13840.2843510774 
1502	 13860.541539548 
1503	 13883.5461465472 
1504	 13905.7441742643 
1505	 13929.2234231398 
1506	 13952.1191555898 
1507	 13974.2378348421 
1508	 13994.2263112175 
1509	 14016.375721079 
1510	 14039.6980338938 
1511	 14061.6787694405 
1512	 14086.2175302305 
1513	 14103.1818105481 
1514	 14113.7200613172 
1515	 14130.8860155797 
1516	 14146.3974707231 
1517	 14163.007136851 
1518	 14185.5565534983 
1519	 14203.5945958088 
1520	 14217.3470142615 
1521	 14232.7986195972 
1522	 14249.765768258 
1523	 14264.4704921939 
1524	 14278.1708302014 
1525	 14290.9309705864 
1526	 14300.8251420563 
1527	 14313.4611330968 
1528	 14328.2933947695 
1529	 14339.8914392064 
1530	 14350.6768242199 
1531	 14361.7860360956 
1532	 14370.1830019303 
1533	 14379.4314803436 
1534	 14388.9225345817 
1535	 14401.0343220772 
1536	 14417.817661028 
1537	 14428.3827043639 
1538	 14437.5014344096 
1539	 14446.2993762666 
1540	 14451.0195756571 
1541	 14454.3575533655 
1542	 14457.8368152175 
1543	 14457.8982803258 
1544	 14461.5065867493 
1545	 14461.4913147536 
1546	 14467.6703685986 
1547	 14479.2098942007 
1548	 14489.2290397876 
1549	 14501.5341874262 
1550	 14509.4967614174 
1551	 14516.5509865938 
1552	 14524.6243540643 
1553	 14530.2839739818 
1554	 14536.3864557126 
1555	 14545.8088766883 
1556	 14550.3817682061 
1557	 14549.4497938415 
1558	 14553.5183560817 
1559	 14559.3766246636 
1560	 14562.6853852942 
1561	 14567.9128368895 
1562	 14569.8196096939 
1563	 14568.3635944391 
1564	 14566.8250084729 
1565	 14563.5290017994 
1566	 14561.5300480248 
1567	 14556.3279120013 
1568	 14556.8221659878 
1569	 14565.0422206168 
1570	 14564.9723377141 
1571	 14565.1030589841 
1572	 14561.5891786595 
1573	 14548.6616676638 
1574	 14541.4196747583 
1575	 14534.4886543189 
1576	 14530.4889484228 
1577	 14532.5021359924 
1578	 14528.9539722448 
1579	 14523.482322057 
1580	 14519.5021021 
1581	 14512.0316313872 
1582	 14506.7204850923 
1583	 14507.5674729959 
1584	 14502.8721887545 
1585	 14493.4842215853 
1586	 14486.1651409551 
1587	 14479.1087005205 
1588	 14469.2971547184 
1589	 14456.5106624915 
1590	 14447.4758034145 
1591	 14437.5313807974 
1592	 14428.5686464005 
1593	 14425.001975623 
1594	 14419.4135613689 
1595	 14411.6203910265 
1596	 14404.6077525516 
1597	 14396.5416212899 
1598	 14388.9251488551 
1599	 14378.6366069511 
1600	 14365.4246922334 
1601	 14356.4146870743 
1602	 14346.9669015527 
1603	 14340.9446104164 
1604	 14339.8453424892 
1605	 14333.0091523137 
1606	 14326.5427241477 
1607	 14314.8444069194 
1608	 14299.6537089443 
1609	 14282.8681510852 
1610	 14264.0646494494 
1611	 14241.0665250783 
1612	 14210.5454384676 
1613	 14190.2483981486 
1614	 14170.0748915854 
1615	 14153.2704212706 
1616	 14147.5103961732 
1617	 14129.7957703454 
1618	 14104.5468209372 
1619	 14085.9860035977 
1620	 14067.429492644 
1621	 14047.2848643234 
1622	 14032.1175801365 
1623	 14009.390529017 
1624	 13979.1018194063 
1625	 13953.1025680172 
1626	 13927.1484100107 
1627	 13900.0079271755 
1628	 13873.5500526173 
1629	 13845.5804943314 
1630	 13816.3139305875 
1631	 13785.4752595609 
1632	 13754.2288529372 
1633	 13720.817883776 
1634	 13681.8551075272 
1635	 13649.4809131378 
1636	 13620.3600006431 
1637	 13588.2233209435 
1638	 13558.7887558917 
1639	 13527.0739008266 
1640	 13492.2863943476 
1641	 13457.5583939783 
1642	 13425.390831463 
1643	 13387.7366264624 
1644	 13344.3930112499 
1645	 13303.8357485202 
1646	 13259.5370532853 
1647	 13220.5598465626 
1648	 13188.454138729 
1649	 13149.326556129 
1650	 13108.5495052462 
1651	 13068.2708876064 
1652	 13023.90101566 
1653	 12980.8608268927 
1654	 12942.2935049552 
1655	 12898.4198004891 
1656	 12849.0912402348 
1657	 12803.3505640724 
1658	 12758.9856743689 
1659	 12710.9903287316 
1660	 12665.7867989312 
1661	 12612.7214869416 
1662	 12549.0896495736 
1663	 12493.643510787 
1664	 12436.2700404961 
1665	 12383.1423359699 
1666	 12338.8856194174 
1667	 12287.8909020136 
1668	 12231.422651939 
1669	 12181.6214335536 
1670	 12132.8336527756 
1671	 12085.7297511531 
1672	 12043.2096854825 
1673	 12001.389592589 
1674	 11959.3121069596 
1675	 11919.3501440101 
1676	 11885.0813809871 
1677	 11846.3719762021 
1678	 11807.341135428 
1679	 11764.6492684017 
1680	 11719.5515111953 
1681	 11673.6330415781 
1682	 11625.8934681538 
1683	 11575.9860050692 
1684	 11519.5561584419 
1685	 11468.6218483053 
1686	 11418.6093259638 
1687	 11370.8936615064 
1688	 11330.4036696248 
1689	 11284.4338051302 
1690	 11230.5457353951 
1691	 11187.0280009336 
1692	 11152.1177664701 
1693	 11108.333445047 
1694	 11067.4132580104 
1695	 11022.7276034738 
1696	 10966.4010537025 
1697	 10917.8410590619 
1698	 10875.8217741195 
1699	 10830.2779444974 
1700	 10779.0102391372 
1701	 10737.634603773 
1702	 10700.8096655264 
1703	 10663.7022726785 
1704	 10636.7852717628 
1705	 10600.6292998812 
1706	 10560.0462224702 
1707	 10520.58722643 
1708	 10474.5588978292 
1709	 10436.407031132 
1710	 10402.2668560612 
1711	 10365.6919426474 
1712	 10337.7810520228 
1713	 10296.3211418774 
1714	 10242.5790466028 
1715	 10196.5433080251 
1716	 10147.8647375602 
1717	 10101.0134982821 
1718	 10061.9973670504 
1719	 10017.2870815245 
1720	 9962.37724476886 
1721	 9919.95084195355 
1722	 9885.81069617825 
1723	 9843.9172338973 
1724	 9803.98155039973 
1725	 9761.49762417407 
1726	 9711.71910614955 
1727	 9669.14125568434 
1728	 9631.81447027552 
1729	 9593.36891480577 
1730	 9555.96072448045 
1731	 9516.23706973146 
1732	 9476.67176056794 
1733	 9438.0195495833 
1734	 9396.42155769936 
1735	 9360.0171262816 
1736	 9327.72530105334 
1737	 9291.15136848592 
1738	 9254.96151096206 
1739	 9218.84495726028 
1740	 9181.11100562739 
1741	 9145.16414831662 
1742	 9112.80602256147 
1743	 9073.96340557665 
1744	 9032.497029055 
1745	 8985.39864789198 
1746	 8938.75321817283 
1747	 8900.30318018043 
1748	 8862.21618016655 
1749	 8823.52682945618 
1750	 8784.70776958579 
1751	 8740.92251505366 
1752	 8693.06268028467 
1753	 8650.91889727181 
1754	 8614.98888635086 
1755	 8576.54015634827 
1756	 8534.17351076922 
1757	 8488.78766284384 
1758	 8441.38048219755 
1759	 8394.49974513129 
1760	 8352.56750976702 
1761	 8313.58371186207 
1762	 8275.97454465452 
1763	 8234.9719209378 
1764	 8193.69537383682 
1765	 8154.56909625512 
1766	 8106.82638217797 
1767	 8060.85384589936 
1768	 8014.58163417291 
1769	 7967.79652535985 
1770	 7930.29234864613 
1771	 7895.32790079957 
1772	 7861.73722810677 
1773	 7825.44146472528 
1774	 7783.42500643507 
1775	 7747.59842271665 
1776	 7716.18341501877 
1777	 7679.21835015963 
1778	 7641.90421292381 
1779	 7599.86884956381 
1780	 7554.14598393909 
1781	 7515.77009330507 
1782	 7478.64833896491 
1783	 7442.5586075047 
1784	 7406.92230405929 
1785	 7374.81884629696 
1786	 7339.31871613567 
1787	 7300.22193457266 
1788	 7264.93989729659 
1789	 7232.92797860783 
1790	 7196.43972043159 
1791	 7162.58616529881 
1792	 7124.90175164918 
1793	 7076.89849713481 
1794	 7034.30386923358 
1795	 6995.70661214972 
1796	 6950.59993390904 
1797	 6909.46354615853 
1798	 6871.60803837069 
1799	 6826.86930932342 
1800	 6776.83904253426 
1801	 11917.4252396717 
1802	 12066.1650808553 
1803	 12197.9316594911 
1804	 12326.4924426369 
1805	 12448.6701254578 
1806	 12552.0644129731 
1807	 12664.7605027107 
1808	 12759.2984185622 
1809	 12838.9348545082 
1810	 12917.7576803092 
1811	 12984.4894961576 
1812	 13052.861030863 
1813	 13119.2531367339 
1814	 13188.4681396434 
1815	 13240.1886703725 
1816	 13283.5432100234 
1817	 13327.611276088 
1818	 13361.9623247077 
1819	 13408.6074485188 
1820	 13459.5737017797 
1821	 13522.7199408808 
1822	 13600.6440738426 
1823	 13672.4521797407 
1824	 13734.5960826737 
1825	 13789.7798334382 
1826	 13820.5638819717 
1827	 13860.9651366009 
1828	 13913.3696047782 
1829	 13989.0944776005 
1830	 14032.5379404844 
1831	 14081.0915976582 
1832	 14106.2266479559 
1833	 14080.1210079595 
1834	 14063.7983235521 
1835	 14034.8382028158 
1836	 14010.5471427296 
1837	 14018.4550022853 
1838	 14055.3922188119 
1839	 14121.7480814026 
1840	 14252.0245613581 
1841	 14335.726849713 
1842	 14440.339230613 
1843	 14522.1307196192 
1844	 14525.9061276105 
1845	 14531.5979385674 
1846	 14554.5027385616 
1847	 14568.955350656 
1848	 14604.1041242611 
1849	 14695.1836791999 
1850	 14727.5347779363 
1851	 14742.8413298645 
1852	 14744.0555112767 
1853	 14720.8233323069 
1854	 14677.9206303052 
1855	 14637.0239367279 
1856	 14596.9163302365 
1857	 14559.7269097143 
1858	 14530.7489964807 
1859	 14505.9028489259 
1860	 14513.9930165189 
1861	 14470.1774078203 
1862	 14427.11562109 
1863	 14343.8000325219 
1864	 14193.6822817314 
1865	 14008.3948942117 
1866	 13757.1278561434 
1867	 13481.0315525362 
1868	 13192.676960336 
1869	 12905.901139509 
1870	 12680.9469714775 
1871	 12489.824866395 
1872	 12336.0126491328 
1873	 12237.9728472727 
1874	 12175.9110158515 
1875	 12128.8579012952 
1876	 12077.2034804299 
1877	 12015.4894118587 
1878	 11936.0635486211 
1879	 11804.4053331181 
1880	 11647.7930252487 
1881	 11470.454094984 
1882	 11258.1411686222 
1883	 11020.4098035528 
1884	 10794.9292819084 
1885	 10573.9886120102 
1886	 10355.0282882036 
1887	 10149.1977445813 
1888	 9939.41735124748 
1889	 9740.17963680661 
1890	 9564.83892240304 
1891	 9393.24752356819 
1892	 9229.173269131 
1893	 9090.48103593367 
1894	 8955.08557491844 
1895	 8796.02605920468 
1896	 8640.94945225477 
1897	 8470.93577672745 
1898	 8287.58515186251 
1899	 8136.85731923423 
1900	 8008.98330373257 
1901	 7891.85207401267 
1902	 7797.67819631401 
1903	 7733.01765906156 
1904	 7673.13810052328 
1905	 7610.549419782 
1906	 7585.48625097796 
1907	 7565.88649032667 
1908	 7535.78374665602 
1909	 7528.35317340112 
1910	 7504.80841258075 
1911	 7460.48497872967 
1912	 7434.00516222403 
1913	 7403.47402399505 
1914	 7365.77016820989 
1915	 7330.77338884191 
1916	 7319.16829105311 
1917	 7281.53530917299 
1918	 7247.68030213172 
1919	 7234.10995931228 
1920	 7209.12766305007 
1921	 7213.13206694195 
1922	 7229.51644936445 
1923	 7239.41945182581 
1924	 7250.59342245673 
1925	 7268.32158231984 
1926	 7274.03490598175 
1927	 7275.81089965654 
1928	 7284.999940656 
1929	 7298.5890579285 
1930	 7310.57523110306 
1931	 7322.09063086582 
1932	 7322.15625873536 
1933	 7317.55421426184 
1934	 7321.65360875342 
1935	 7328.8428069071 
1936	 7339.06892243066 
1937	 7360.7415558469 
1938	 7383.85269975229 
1939	 7405.21961223384 
1940	 7430.55157450724 
1941	 7454.30467297216 
1942	 7476.52863500497 
1943	 7496.13393875032 
1944	 7518.73084474719 
1945	 7537.07890686211 
1946	 7555.11181734626 
1947	 7569.97955721325 
1948	 7588.91413742663 
1949	 7604.31355381899 
1950	 7633.10013830385 
1951	 7660.77252008804 
1952	 7687.10993302149 
1953	 7714.54452172174 
1954	 7731.59003323471 
1955	 7750.47956567542 
1956	 7765.93018107175 
1957	 7782.3273566828 
1958	 7798.26169766652 
1959	 7818.68644787483 
1960	 7839.99909991797 
1961	 7871.86503408065 
1962	 7893.22389159972 
1963	 7912.8907587203 
1964	 7939.1859296621 
1965	 7956.82176964807 
1966	 7979.48860051219 
1967	 8021.24960464494 
1968	 8052.02405351313 
1969	 8062.32713935263 
1970	 8079.57201559561 
1971	 8091.66352788673 
1972	 8107.6093871256 
1973	 8119.72120061144 
1974	 8148.48996571143 
1975	 8177.48324883595 
1976	 8197.45240591733 
1977	 8215.49818260144 
1978	 8234.57724214934 
1979	 8248.45879301947 
1980	 8257.71456896709 
1981	 8275.84106627723 
1982	 8295.13189418584 
1983	 8317.9259515953 
1984	 8355.32881686901 
1985	 8380.5800264659 
1986	 8401.18132781543 
1987	 8417.21700824014 
1988	 8442.44020812513 
1989	 8458.13531643395 
1990	 8478.35282307657 
1991	 8508.25349726267 
1992	 8527.43740060642 
1993	 8544.50436806505 
1994	 8562.69354752133 
1995	 8584.05859615556 
1996	 8594.50465100767 
1997	 8596.64199898549 
1998	 8607.5817515019 
1999	 8613.04809588916 
2000	 8626.95946891627 
2001	 8652.48782097572 
2002	 8669.32932176781 
2003	 8682.70126324097 
2004	 8700.59216669939 
2005	 8718.56956529797 
2006	 8731.6631412654 
2007	 8746.06685522289 
2008	 8761.52887692794 
2009	 8774.38165255473 
2010	 8784.70668707908 
2011	 8796.36243792816 
2012	 8808.96124620197 
2013	 8819.45659008247 
2014	 8824.35074448431 
2015	 8831.42782451049 
2016	 8836.66996987238 
2017	 8841.45586861197 
2018	 8860.20350798523 
2019	 8879.8359753587 
2020	 8888.66585087525 
2021	 8897.45233119368 
2022	 8901.46075501093 
2023	 8890.84946923656 
2024	 8887.04616926376 
2025	 8888.56894941011 
2026	 8880.82112832025 
2027	 8873.13219213028 
2028	 8871.87206470461 
2029	 8870.52749088273 
2030	 8867.50188298252 
2031	 8865.00335596712 
2032	 8862.70026609222 
2033	 8859.86290306123 
2034	 8860.0009579104 
2035	 8853.29913942666 
2036	 8839.94128808958 
2037	 8830.53714844646 
2038	 8821.40879523544 
2039	 8809.72836324434 
2040	 8795.32297358805 
2041	 8788.64481180378 
2042	 8784.17805620224 
2043	 8766.75806155105 
2044	 8759.32045944583 
2045	 8750.82338373485 
2046	 8736.29554589272 
2047	 8725.90674047736 
2048	 8715.53814061924 
2049	 8708.83684097349 
2050	 8697.04741336223 
2051	 8685.02548221867 
2052	 8670.50659190067 
2053	 8652.36692369257 
2054	 8634.49194991251 
2055	 8612.85824528701 
2056	 8586.26444858429 
2057	 8566.21263344724 
2058	 8557.14851353362 
2059	 8558.14585955452 
2060	 8559.65769898191 
2061	 8553.32669599558 
2062	 8542.17303256988 
2063	 8534.50207921601 
2064	 8520.81871524483 
2065	 8514.25254129067 
2066	 8518.38603100801 
2067	 8513.0800262113 
2068	 8505.30386094522 
2069	 8495.84753526822 
2070	 8481.47170202173 
2071	 8469.91784396277 
2072	 8461.48126240155 
2073	 8449.80094894821 
2074	 8432.40411377046 
2075	 8423.69848366207 
2076	 8420.10743039496 
2077	 8418.58249381 
2078	 8419.77718376544 
2079	 8433.02158860903 
2080	 8436.02940438544 
2081	 8438.25250601136 
2082	 8433.18282511665 
2083	 8423.08151874949 
2084	 8409.94073142311 
2085	 8397.13223767868 
2086	 8387.56864031279 
2087	 8384.00238995074 
2088	 8382.94027521992 
2089	 8370.81641630927 
2090	 8364.51324539962 
2091	 8367.83910050849 
2092	 8359.63999874996 
2093	 8351.70582883854 
2094	 8347.18692376378 
2095	 8337.94360695086 
2096	 8315.47274008165 
2097	 8306.15549013631 
2098	 8304.72079465028 
2099	 8299.56522016664 
2100	 8294.30442533743 
2101	 8296.28917400609 
2102	 8298.73727892527 
2103	 8293.90831541906 
2104	 8287.26532722225 
2105	 8280.75294334551 
2106	 8270.04280497032 
2107	 8262.26429060206 
2108	 8257.22361546988 
2109	 8255.58726278615 
2110	 8255.77731799638 
2111	 8255.84802405435 
2112	 8259.14629818439 
2113	 8274.51522127469 
2114	 8277.60468535641 
2115	 8271.55609037946 
2116	 8272.08250448041 
2117	 8270.98219049321 
2118	 8266.94515327751 
2119	 8268.37198507396 
2120	 8276.01829956034 
2121	 8280.50116157081 
2122	 8270.42103062072 
2123	 8262.76324498683 
2124	 8266.46907573799 
2125	 8261.45655302922 
2126	 8254.01668255427 
2127	 8248.76127194974 
2128	 8236.1717615734 
2129	 8230.79614126611 
2130	 8236.49381929832 
2131	 8230.07329149837 
2132	 8219.150084472 
2133	 8211.46196263118 
2134	 8201.88574901636 
2135	 8184.25441661298 
2136	 8175.04307653342 
2137	 8170.2678841767 
2138	 8158.53005838963 
2139	 8153.72689740698 
2140	 8156.40704448386 
2141	 8157.1216160981 
2142	 8157.87946098542 
2143	 8156.86292594525 
2144	 8149.97945588805 
2145	 8133.05313190433 
2146	 8122.64080569113 
2147	 8110.02313104613 
2148	 8101.55210257929 
2149	 8095.90767985677 
2150	 8092.52943583215 
2151	 8093.44712614675 
2152	 8093.72271612354 
2153	 8086.99930235302 
2154	 8078.68255743829 
2155	 8065.28751508461 
2156	 8051.74725840242 
2157	 8038.99636581629 
2158	 8022.65912188093 
2159	 8012.87831764554 
2160	 8001.59166050154 
2161	 7988.16182034472 
2162	 7976.01777780096 
2163	 7965.11783942093 
2164	 7947.06109635603 
2165	 7939.95942274342 
2166	 7945.62064682027 
2167	 7941.24756049218 
2168	 7940.3437583171 
2169	 7930.66856585719 
2170	 7907.24318200169 
2171	 7891.85651236093 
2172	 7878.24842980443 
2173	 7863.52411477574 
2174	 7845.80627485719 
2175	 7830.45679628199 
2176	 7814.43106366154 
2177	 7799.72515522526 
2178	 7786.65260434377 
2179	 7776.03155238444 
2180	 7765.72445585095 
2181	 7753.38879677772 
2182	 7739.23429257002 
2183	 7724.84440294592 
2184	 7711.73927197059 
2185	 7696.88423666875 
2186	 7681.27151674988 
2187	 7667.24484957856 
2188	 7652.21978569448 
2189	 7632.63872837917 
2190	 7616.74224351377 
2191	 7602.52366508526 
2192	 7593.2512789423 
2193	 7577.03196255146 
2194	 7560.32219535799 
2195	 7538.99535911059 
2196	 7508.80904737518 
2197	 7485.41243193761 
2198	 7460.83437795766 
2199	 7437.20373819221 
2200	 7419.88003185784 
2201	 7395.02570415785 
2202	 7370.65955741587 
2203	 7346.02657095624 
2204	 7325.29622175776 
2205	 7303.20776107023 
2206	 7280.80528965752 
2207	 7260.20618460252 
2208	 7242.76824960199 
2209	 7218.37496114985 
2210	 7195.01640041401 
2211	 7169.6922242182 
2212	 7133.17919151928 
2213	 7105.51964449677 
2214	 7082.85454994386 
2215	 7059.82612641614 
2216	 7035.48478322637 
2217	 7014.75947240061 
2218	 6986.65933852649 
2219	 6959.71310894275 
2220	 6936.66442968086 
2221	 6909.17926000625 
2222	 6886.62696534182 
2223	 6855.82131270724 
2224	 6828.64331067168 
2225	 6810.72218876524 
2226	 6778.82448121165 
2227	 6749.8132482998 
2228	 6711.7567637271 
2229	 6652.09383135397 
2230	 6615.43752275518 
2231	 6589.19123850243 
2232	 6556.73823110656 
2233	 6534.93625622893 
2234	 6504.55310144589 
2235	 6470.71886353685 
2236	 6426.24373635921 
2237	 6375.37427061161 
2238	 6324.87953563016 
2239	 6262.41864914763 
2240	 6202.97915898771 
2241	 6158.85848148503 
2242	 6119.75836449454 
2243	 6087.12236854569 
2244	 6048.28615552315 
2245	 6002.29108762878 
2246	 5955.70796917768 
2247	 5903.07214713589 
2248	 5852.77067283974 
2249	 5803.28685352341 
2250	 5753.74568224102 
2251	 5710.22854066972 
2252	 5669.89591775073 
2253	 5635.70420507121 
2254	 5595.06194884509 
2255	 5550.96151170745 
2256	 5505.35877971476 
2257	 5453.04137285917 
2258	 5390.0886560918 
2259	 5338.6158274161 
2260	 5285.76177709875 
2261	 5235.57453808813 
2262	 5193.13784158294 
2263	 5147.58679137074 
2264	 5099.32401099186 
2265	 5052.33688822195 
2266	 5007.574934579 
2267	 4966.80881862627 
2268	 4927.90329892905 
2269	 4888.40832620271 
2270	 4850.84062305484 
2271	 4801.00267167716 
2272	 4761.60856140484 
2273	 4726.48483059912 
2274	 4682.36749373888 
2275	 4648.72953524432 
2276	 4613.97801925145 
2277	 4573.91575381273 
2278	 4551.21195936394 
2279	 4537.82811819649 
2280	 4511.74166715437 
2281	 4485.33120507591 
2282	 4463.27125299275 
2283	 4437.2922421756 
2284	 4413.83096009563 
2285	 4383.80864347405 
2286	 4351.56067738594 
2287	 4314.99448412332 
2288	 4279.93110408968 
2289	 4246.58082539751 
2290	 4213.80594254374 
2291	 4179.38600121272 
2292	 4148.56778251419 
2293	 4123.443603693 
2294	 4086.33155029282 
2295	 4044.6765672483 
2296	 4002.60534270795 
2297	 3947.32981936557 
2298	 3905.82896652387 
2299	 3872.72663979983 
2300	 3837.77461983177 
2301	 3808.30229349598 
2302	 3778.21905172942 
2303	 3734.75075218368 
2304	 3698.99711436426 
2305	 3660.76251395475 
2306	 3617.81800248384 
2307	 3584.76205372956 
2308	 3556.46617678075 
2309	 3533.01148495088 
2310	 3502.95209543873 
2311	 3458.10173464134 
2312	 3417.47198901594 
2313	 3384.16165198091 
2314	 3352.24444540785 
2315	 3340.75038731804 
2316	 3331.51131712234 
2317	 3304.69101610708 
2318	 3277.7673092786 
2319	 3252.58209243325 
2320	 3223.81286038909 
2321	 3190.21509287332 
2322	 3156.72482406965 
2323	 3119.94536385764 
2324	 3089.2605019103 
2325	 3070.51841781656 
2326	 3048.10760785271 
2327	 3027.75443660431 
2328	 3004.22875676687 
2329	 2964.56952513685 
2330	 2925.30940863095 
2331	 2892.02840348091 
2332	 2856.30248653361 
2333	 2824.3315780326 
2334	 2803.36724756458 
2335	 2775.89112337174 
2336	 2742.62257442455 
2337	 2717.10061273867 
2338	 2697.6196864509 
2339	 2670.05453865325 
2340	 2642.54983673623 
2341	 2612.16879005684 
2342	 2571.13777097301 
2343	 2537.57214408404 
2344	 2510.45688424318 
2345	 2481.95082022731 
2346	 2450.86414348222 
2347	 2427.3742785537 
2348	 2407.70412962207 
2349	 2387.5391927415 
2350	 2376.09088016337 
2351	 2366.81484988495 
2352	 2349.97301968115 
2353	 2327.29993919127 
2354	 2299.24631949495 
2355	 2270.97074205852 
2356	 2239.8058740244 
2357	 2213.75165813938 
2358	 2195.9113149115 
2359	 2168.60697218871 
2360	 2143.60088009994 
2361	 2120.26769973792 
2362	 2091.52139034626 
2363	 2072.1552214341 
2364	 2049.66331833744 
2365	 2028.84648284003 
2366	 2016.3106834479 
2367	 1992.49085487068 
2368	 1972.53929668939 
2369	 1957.04355417786 
2370	 1929.60646581699 
2371	 1905.82046719247 
2372	 1884.8184925241 
2373	 1858.47328431355 
2374	 1836.80802699324 
2375	 1821.29152859157 
2376	 1810.77795234765 
2377	 1796.72180521201 
2378	 1768.96068108216 
2379	 1748.11838187094 
2380	 1725.54833831044 
2381	 1697.08526623791 
2382	 1684.88173833883 
2383	 1667.45173960469 
2384	 1646.88281516308 
2385	 1635.43445730672 
2386	 1630.45471357167 
2387	 1618.6470677425 
2388	 1599.99776877813 
2389	 1585.935757132 
2390	 1562.53400799173 
2391	 1537.52835023221 
2392	 1507.27240597557 
2393	 1479.27279404711 
2394	 1457.80527119834 
2395	 1433.86995927763 
2396	 1422.57145266729 
2397	 1419.53623939795 
2398	 1411.21520688951 
2399	 1395.83521122684 
2400	 1382.01696792514 
2401	 1361.39995613442 
2402	 1339.25653167729 
2403	 1327.06754305275 
2404	 1311.14647657566 
2405	 1293.04827134874 
2406	 1276.80161077112 
2407	 1260.97333236823 
2408	 1247.17006230553 
2409	 1228.49803241216 
2410	 1205.32199615866 
2411	 1179.71489357532 
2412	 1150.75227227538 
2413	 1133.08887356243 
2414	 1115.21723048921 
2415	 1099.4662633524 
2416	 1093.33729802888 
2417	 1079.97426638821 
2418	 1078.26536480904 
2419	 1073.2250246428 
2420	 1060.25971690875 
2421	 1050.52595737668 
2422	 1027.00538161373 
2423	 1008.377029206 
2424	 995.718663347174 
2425	 975.250464598175 
2426	 956.781985872749 
2427	 949.627977773605 
2428	 942.263231842461 
2429	 939.393474283764 
2430	 940.016790125624 
2431	 919.013303297776 
2432	 896.95099243705 
2433	 882.448091330403 
2434	 865.231379999606 
2435	 849.460495655121 
2436	 836.365174356909 
2437	 815.611100380605 
2438	 792.052462408615 
2439	 785.896897031228 
2440	 773.555693697453 
2441	 760.979050259238 
2442	 759.632423807928 
2443	 752.657372438004 
2444	 754.971496465578 
2445	 760.975023527108 
2446	 759.464818421288 
2447	 750.370573509726 
2448	 723.922647273718 
2449	 700.58500021224 
2450	 682.610093805972 
2451	 664.872877141636 
2452	 661.347023482636 
2453	 643.907995170517 
2454	 624.28513943299 
2455	 623.998622585317 
2456	 621.814815548715 
2457	 624.168373217055 
2458	 622.412260668824 
2459	 610.796741269687 
2460	 599.373984173886 
2461	 589.597892873426 
2462	 589.145524202788 
2463	 587.43965138517 
2464	 573.444657537805 
2465	 559.300120441455 
2466	 553.170103027388 
2467	 546.910916261083 
2468	 542.569174035194 
2469	 533.302754396552 
2470	 520.351908703335 
2471	 509.872492546332 
2472	 497.033838081511 
2473	 492.837380588625 
2474	 482.969045684473 
2475	 469.940118250072 
2476	 467.578011776281 
2477	 465.758861546896 
2478	 466.456175350783 
2479	 460.256483062166 
2480	 446.763287561431 
2481	 442.240880236714 
2482	 435.11607249267 
2483	 423.934698314026 
2484	 422.419229309777 
2485	 419.383248740605 
2486	 417.136055927139 
2487	 420.613406882645 
2488	 423.614018149922 
2489	 421.578815436876 
2490	 407.990609862863 
2491	 397.633765440198 
2492	 393.915221919182 
2493	 385.627830807198 
2494	 385.699602543856 
2495	 389.211584475266 
2496	 381.560515542467 
2497	 373.284208818968 
2498	 370.202050471214 
2499	 368.491200141796 
2500	 355.784657768794 
