Wavelength	spectrum00002.asd
350	 16.467641638375 
351	 17.6470414977959 
352	 17.8706351250089 
353	 18.5416043539932 
354	 20.7523905316047 
355	 20.8914368900843 
356	 21.72921006795 
357	 23.703949996984 
358	 25.0839182232399 
359	 24.695434230692 
360	 25.4403922386639 
361	 28.5364658280321 
362	 29.7530295108339 
363	 30.4769824477186 
364	 31.1548620511248 
365	 32.1863168177811 
366	 35.2786206989268 
367	 39.2618075451024 
368	 42.3274537075736 
369	 42.2861830752438 
370	 43.5908368589434 
371	 45.859718517841 
372	 47.8948484130715 
373	 50.218749120927 
374	 52.4567239765289 
375	 54.6291322168585 
376	 56.9304312378005 
377	 58.1623079074772 
378	 60.8914006231213 
379	 65.3529345332153 
380	 66.349574806478 
381	 68.2176538735203 
382	 71.6008114522324 
383	 75.5258548334966 
384	 77.986665274089 
385	 79.3691221544246 
386	 80.8242366404423 
387	 84.0510057434717 
388	 87.6940663741375 
389	 90.8360221470024 
390	 93.3252534649464 
391	 97.0804428296862 
392	 99.9282599118663 
393	 102.105433595279 
394	 105.174923980492 
395	 108.39240059096 
396	 112.537117394194 
397	 116.977543949535 
398	 118.008277891281 
399	 122.462524857895 
400	 128.518412414864 
401	 132.300944515557 
402	 136.1749421349 
403	 140.771163478215 
404	 146.324762942241 
405	 152.634729579419 
406	 156.019571725446 
407	 160.298196283903 
408	 168.075573673157 
409	 172.922408242226 
410	 179.252572967253 
411	 187.128542996973 
412	 194.0712846938 
413	 200.559458416618 
414	 207.036899645408 
415	 213.886370266148 
416	 221.237153382442 
417	 230.416929913839 
418	 239.829365918646 
419	 247.657618651289 
420	 257.420048044702 
421	 268.102123777131 
422	 278.42322792886 
423	 287.186173105452 
424	 296.447507139164 
425	 307.701018314975 
426	 320.986752425805 
427	 332.372945743274 
428	 342.841543117359 
429	 353.625891650881 
430	 365.871644163004 
431	 376.94187157577 
432	 388.615994664389 
433	 401.567463467189 
434	 412.247820654809 
435	 425.025470866905 
436	 439.173467015601 
437	 451.989079843272 
438	 463.249250439533 
439	 475.5200411136 
440	 489.251614727823 
441	 501.667677084251 
442	 513.808682742935 
443	 525.75759987859 
444	 537.439809316287 
445	 549.18922536042 
446	 559.681299096736 
447	 569.261710690145 
448	 579.730842590678 
449	 590.2831639646 
450	 599.814680286789 
451	 608.048409016458 
452	 617.155429311982 
453	 625.718358269204 
454	 633.400369639725 
455	 640.522730365987 
456	 647.793961198696 
457	 654.151665816097 
458	 659.348897969496 
459	 665.056664160832 
460	 669.798018453776 
461	 674.345145589734 
462	 679.772061379019 
463	 684.0530981946 
464	 687.905944495612 
465	 692.032151519493 
466	 696.886219709004 
467	 701.332741125672 
468	 705.343569250839 
469	 709.417987289157 
470	 714.856782472386 
471	 720.012268614607 
472	 724.660710793022 
473	 729.768901892492 
474	 735.765740984972 
475	 741.208001825659 
476	 745.396713547225 
477	 750.037903484116 
478	 757.195897095392 
479	 764.919151624882 
480	 769.845647592215 
481	 777.026116511841 
482	 783.075923773569 
483	 786.957810069737 
484	 793.14416190719 
485	 800.487212649613 
486	 807.705754594199 
487	 813.752138187868 
488	 819.799825852974 
489	 826.602377076691 
490	 834.126109170755 
491	 841.477773811024 
492	 850.110860795355 
493	 858.63131172307 
494	 866.290936366835 
495	 877.43614229809 
496	 888.099916519352 
497	 897.740766049926 
498	 908.677206730506 
499	 922.727545492836 
500	 936.049211284871 
501	 947.098819158123 
502	 962.687687479625 
503	 979.200221693904 
504	 996.123307663152 
505	 1014.19712642122 
506	 1031.6177579337 
507	 1049.61650694328 
508	 1069.45030724316 
509	 1091.92808520017 
510	 1114.96416295119 
511	 1139.68050571575 
512	 1167.61212959201 
513	 1195.92670277883 
514	 1224.55760671119 
515	 1254.51517976153 
516	 1287.82972492357 
517	 1322.34795431299 
518	 1359.82988051889 
519	 1401.42243560456 
520	 1442.3667322322 
521	 1484.92727491223 
522	 1529.45254844522 
523	 1574.63956412455 
524	 1620.14415802811 
525	 1666.44871748195 
526	 1713.66322384306 
527	 1760.38402665065 
528	 1808.11225943772 
529	 1855.49657883837 
530	 1900.20640501113 
531	 1945.70575948247 
532	 1993.47680264747 
533	 2042.35779195922 
534	 2086.8835718667 
535	 2129.98074504092 
536	 2172.65090966128 
537	 2214.93534632816 
538	 2254.79577891084 
539	 2293.84295236381 
540	 2332.82902262872 
541	 2371.11931765099 
542	 2410.13962581667 
543	 2448.80377906883 
544	 2486.3692543407 
545	 2526.39723761088 
546	 2565.25555184238 
547	 2602.99589710931 
548	 2642.70576088558 
549	 2680.42824180253 
550	 2715.94281088504 
551	 2750.28948614485 
552	 2786.06583177323 
553	 2819.62437250254 
554	 2850.19421791167 
555	 2878.53883958758 
556	 2903.38915520946 
557	 2925.29388295478 
558	 2944.4020138053 
559	 2959.50025667574 
560	 2972.9988141323 
561	 2984.39973783514 
562	 2991.89796005682 
563	 2993.4091552806 
564	 2991.71020619825 
565	 2988.20522481929 
566	 2982.07389917457 
567	 2973.70915617687 
568	 2963.1418458309 
569	 2950.79035895308 
570	 2938.07802111148 
571	 2929.7697455225 
572	 2925.98688428267 
573	 2922.84462714237 
574	 2922.34490138604 
575	 2923.27228591592 
576	 2925.66036253097 
577	 2934.96133928846 
578	 2943.20305607249 
579	 2952.610033781 
580	 2969.97507548833 
581	 2986.92681751403 
582	 3002.71316548594 
583	 3017.15877490885 
584	 3029.49534722518 
585	 3036.8750314266 
586	 3040.53965381572 
587	 3043.10560415077 
588	 3043.80671517343 
589	 3046.79265856878 
590	 3051.45613236115 
591	 3051.14199367041 
592	 3050.95469813704 
593	 3048.77552780226 
594	 3042.58732013097 
595	 3037.41745461563 
596	 3032.65180535194 
597	 3029.07947879791 
598	 3028.42073241166 
599	 3028.01924537833 
600	 3027.27917603525 
601	 3026.42289363972 
602	 3026.92946907504 
603	 3025.79150817199 
604	 3022.99981318762 
605	 3020.07439568426 
606	 3017.17251887332 
607	 3013.50393246493 
608	 3008.67352811261 
609	 3002.96701846647 
610	 2999.3927844183 
611	 2995.57794495642 
612	 2988.61929303848 
613	 2982.68110980499 
614	 2979.11447197042 
615	 2976.63221458945 
616	 2971.51037201359 
617	 2969.62528819974 
618	 2968.27357856817 
619	 2965.48657493051 
620	 2967.93621648399 
621	 2972.88940583557 
622	 2978.76671794235 
623	 2984.80533763607 
624	 2990.75846086158 
625	 2998.90949360078 
626	 3009.66333780923 
627	 3018.85553538759 
628	 3028.46111977599 
629	 3038.18462916856 
630	 3046.88308680939 
631	 3053.59885054482 
632	 3059.33526782703 
633	 3064.12216859135 
634	 3066.58271676429 
635	 3065.78411168536 
636	 3063.02179097325 
637	 3059.72880812063 
638	 3055.24983759763 
639	 3049.50108668981 
640	 3042.846020924 
641	 3035.85985361846 
642	 3026.60125882663 
643	 3017.6495354317 
644	 3010.76478657685 
645	 3004.03789479507 
646	 2998.71077386498 
647	 2994.26580853958 
648	 2989.93375500427 
649	 2988.84472675597 
650	 2988.80284675232 
651	 2989.14062300961 
652	 2991.95314758032 
653	 2996.48245199365 
654	 3001.12027751745 
655	 3005.29609367391 
656	 3014.00769422804 
657	 3020.48641070482 
658	 3024.62167513715 
659	 3031.72197769058 
660	 3038.29623663105 
661	 3046.68808771252 
662	 3058.02509586421 
663	 3068.28906330884 
664	 3079.86239271984 
665	 3092.92065248947 
666	 3106.90490256179 
667	 3122.87862232823 
668	 3140.72004385456 
669	 3159.7148545073 
670	 3178.51072143876 
671	 3199.08210027557 
672	 3221.75610988343 
673	 3246.20333063752 
674	 3271.48970291462 
675	 3298.9453041169 
676	 3327.48619835913 
677	 3354.65038119909 
678	 3385.33855404276 
679	 3419.52918117137 
680	 3455.85494912041 
681	 3491.75077044583 
682	 3529.93651306495 
683	 3570.93039916231 
684	 3614.59201975177 
685	 3661.92758919516 
686	 3713.60528360278 
687	 3770.27864537144 
688	 3832.61486167704 
689	 3902.01968140495 
690	 3978.95910647125 
691	 4064.96923020915 
692	 4165.53846020126 
693	 4278.47821516938 
694	 4405.42201405441 
695	 4549.8240111334 
696	 4708.22082610298 
697	 4888.26553153362 
698	 5091.5027348887 
699	 5306.92234402879 
700	 5547.3070700121 
701	 5806.01403911091 
702	 6073.37514318598 
703	 6356.29369203946 
704	 6651.04911647262 
705	 6954.40200379616 
706	 7264.10196391812 
707	 7581.84149030962 
708	 7905.68851036151 
709	 8235.27306002934 
710	 8575.57837591688 
711	 8920.22813345417 
712	 9268.97797620751 
713	 9624.16559086707 
714	 9987.20784972006 
715	 10353.8417400187 
716	 10723.1610820961 
717	 11098.4250602842 
718	 11476.2855467595 
719	 11858.4677040357 
720	 12246.025732188 
721	 12635.7034243107 
722	 13021.6779563796 
723	 13404.5946054318 
724	 13787.866686793 
725	 14165.5377498017 
726	 14539.1231365786 
727	 14909.8486300453 
728	 15277.4830732483 
729	 15638.7043760954 
730	 15992.760535991 
731	 16340.0376817002 
732	 16681.962225523 
733	 17016.5759583906 
734	 17343.0267457793 
735	 17661.2562967864 
736	 17970.8721927353 
737	 18273.5134828266 
738	 18569.9920759703 
739	 18859.3674904921 
740	 19144.0845088308 
741	 19421.7332411867 
742	 19689.9805809569 
743	 19954.1075668315 
744	 20200.1914521341 
745	 20428.1866608227 
746	 20649.5849606815 
747	 20880.8054002313 
748	 21108.2171828077 
749	 21326.7668300012 
750	 21553.9034467651 
751	 21769.7941366277 
752	 21978.6065037024 
753	 22187.831409172 
754	 22386.4990716432 
755	 22582.6722250936 
756	 22780.9358034156 
757	 22981.5655970231 
758	 23173.7969241355 
759	 23353.9616467214 
760	 23525.7778246514 
761	 23702.7020173609 
762	 23881.6973730755 
763	 24060.9122268612 
764	 24237.0926633177 
765	 24402.6139132617 
766	 24561.8040650133 
767	 24715.5910006752 
768	 24863.0877751641 
769	 25010.8143278776 
770	 25151.3887664821 
771	 25289.0862592464 
772	 25448.4327519654 
773	 25599.3302032098 
774	 25731.4037348952 
775	 25842.6358246415 
776	 25937.056432505 
777	 26024.403358775 
778	 26105.141466054 
779	 26175.8357184197 
780	 26250.7244729205 
781	 26320.2287274504 
782	 26380.1067097431 
783	 26436.1694990491 
784	 26488.1176627268 
785	 26536.5094109005 
786	 26580.5637609031 
787	 26615.6991849086 
788	 26645.3934891227 
789	 26670.0779026332 
790	 26688.8411170443 
791	 26701.4677634023 
792	 26709.2335953024 
793	 26714.0669043421 
794	 26717.934276791 
795	 26714.7992936896 
796	 26706.0579984384 
797	 26693.3692235249 
798	 26675.9807505175 
799	 26652.9633355515 
800	 26624.7530271377 
801	 26591.0573900846 
802	 26547.0774130376 
803	 26490.4784530491 
804	 26428.4806050972 
805	 26373.0557412388 
806	 26315.0306450204 
807	 26254.8568146867 
808	 26194.088823949 
809	 26134.2033051551 
810	 26059.798859536 
811	 25979.9831181726 
812	 25904.510035402 
813	 25828.0428008548 
814	 25740.2571260332 
815	 25640.7087156538 
816	 25534.1087962463 
817	 25422.8830634276 
818	 25310.7215002164 
819	 25197.6069214444 
820	 25080.6100860157 
821	 24964.1142464052 
822	 24843.7866657178 
823	 24717.0594944202 
824	 24586.4362038219 
825	 24451.5709627477 
826	 24316.9239335518 
827	 24184.0489870441 
828	 24041.2398975416 
829	 23901.0837842874 
830	 23761.774343105 
831	 23616.3899618869 
832	 23473.6454944444 
833	 23325.6110629917 
834	 23171.7938070841 
835	 23019.3536190448 
836	 22869.647033195 
837	 22723.5295516456 
838	 22580.5115207243 
839	 22438.4642929246 
840	 22300.3597416517 
841	 22163.3691002394 
842	 22024.1838926443 
843	 21882.1643548912 
844	 21743.6889489304 
845	 21607.9600508925 
846	 21471.8340017174 
847	 21338.3488864335 
848	 21207.5139609906 
849	 21078.1907717773 
850	 20948.9717866283 
851	 20824.3521791777 
852	 20695.7065323812 
853	 20563.099913379 
854	 20439.2326084968 
855	 20312.9412672546 
856	 20183.0183790286 
857	 20051.9218875372 
858	 19924.646884875 
859	 19804.6032089777 
860	 19689.7460392685 
861	 19575.0103554351 
862	 19454.0758410247 
863	 19323.6737097136 
864	 19189.9686725245 
865	 19061.4864181263 
866	 18928.1860773439 
867	 18793.7047078682 
868	 18660.5961714697 
869	 18529.2002927695 
870	 18396.7398126279 
871	 18261.3291012082 
872	 18123.9568670902 
873	 17988.8609367342 
874	 17849.3517103144 
875	 17708.3638372646 
876	 17569.1817160905 
877	 17431.3043172266 
878	 17293.1667510281 
879	 17154.7362083936 
880	 17015.5048179401 
881	 16871.6414809597 
882	 16726.2976442142 
883	 16583.3086587724 
884	 16444.4713196169 
885	 16301.1700527418 
886	 16158.8363492104 
887	 16016.1392909699 
888	 15868.3108929549 
889	 15723.9338277194 
890	 15580.0865038512 
891	 15435.5725011913 
892	 15291.8362248526 
893	 15146.3868119026 
894	 15001.4298031851 
895	 14858.1543901355 
896	 14715.2878177441 
897	 14572.7055758528 
898	 14430.7824012153 
899	 14289.3339535133 
900	 14146.6514987129 
901	 14008.8714206819 
902	 13870.9395197469 
903	 13728.2269432633 
904	 13585.932083549 
905	 13450.0337800947 
906	 13317.4460362774 
907	 13183.1506103166 
908	 13050.4000512676 
909	 12913.9696010489 
910	 12777.3266334142 
911	 12646.6509755548 
912	 12517.9779846348 
913	 12388.2495031178 
914	 12257.1803699532 
915	 12126.806899364 
916	 12000.2369481394 
917	 11876.0714077809 
918	 11752.0130409184 
919	 11625.9108479696 
920	 11499.1551983684 
921	 11376.2639728199 
922	 11256.4015187435 
923	 11133.2011686041 
924	 11011.0497004299 
925	 10889.4946940709 
926	 10767.3159769859 
927	 10643.5601918179 
928	 10524.182067181 
929	 10404.2465761958 
930	 10280.7648870733 
931	 10157.5934322552 
932	 10037.4188971317 
933	 9919.02868674015 
934	 9800.0966647642 
935	 9678.2372009265 
936	 9563.22835609867 
937	 9451.48238921836 
938	 9338.40621683001 
939	 9226.59383795835 
940	 9113.26811614239 
941	 8998.63205384145 
942	 8884.56347220668 
943	 8775.15325228376 
944	 8662.21365191464 
945	 8547.80992324472 
946	 8435.85825283008 
947	 8324.06827954096 
948	 8212.24751961293 
949	 8099.66162129043 
950	 7986.42935348411 
951	 7876.02232518993 
952	 7764.90442599724 
953	 7654.91208941546 
954	 7548.48276612397 
955	 7441.22464028586 
956	 7335.28361917971 
957	 7229.87658831638 
958	 7123.7503728754 
959	 7019.21190742426 
960	 6917.40910679472 
961	 6816.45796101256 
962	 6714.39039059076 
963	 6615.35467349941 
964	 6516.91397521741 
965	 6419.00883528846 
966	 6322.44927065668 
967	 6225.84321307942 
968	 6130.05677238669 
969	 6035.00191156325 
970	 5940.68569279785 
971	 5850.00058542921 
972	 5758.89371045361 
973	 5667.55350098873 
974	 5578.1310246694 
975	 5490.66100836064 
976	 5401.28740370007 
977	 5313.19198680322 
978	 5230.39965928372 
979	 5145.10946146486 
980	 5060.10814536418 
981	 4976.17330192372 
982	 4893.43614442302 
983	 4813.97095182285 
984	 4735.11216141044 
985	 4656.09190749064 
986	 4577.31053505625 
987	 4499.45381850889 
988	 4423.24419320315 
989	 4347.24167147505 
990	 4270.7767478156 
991	 4198.84546326967 
992	 4126.47686518362 
993	 4054.27037503302 
994	 3983.77065633246 
995	 3912.62440881592 
996	 3841.86755808579 
997	 3773.5673357125 
998	 3708.24214431431 
999	 3641.83941783664 
1000	 3575.11483655609 
1001	 7739.56544513316 
1002	 7781.88505481978 
1003	 7825.75566552137 
1004	 7872.12369670815 
1005	 7920.04571181354 
1006	 7962.29102279373 
1007	 8008.60169628898 
1008	 8060.08276634106 
1009	 8110.67009720004 
1010	 8172.3449015704 
1011	 8237.46981153856 
1012	 8303.99523638216 
1013	 8373.35255717891 
1014	 8444.58020820619 
1015	 8517.41841181751 
1016	 8596.28162710574 
1017	 8679.2911708943 
1018	 8762.08335568382 
1019	 8854.03854680478 
1020	 8942.88645767224 
1021	 9027.79041931303 
1022	 9118.10322281433 
1023	 9205.66743802206 
1024	 9286.1567385522 
1025	 9368.83223016964 
1026	 9453.68517405898 
1027	 9533.64088027143 
1028	 9609.89120306969 
1029	 9689.04445299683 
1030	 9765.61935991626 
1031	 9831.72589399427 
1032	 9894.53059699224 
1033	 9955.194936106 
1034	 10009.421533168 
1035	 10057.230965704 
1036	 10100.2063101287 
1037	 10138.1746556033 
1038	 10170.6314384769 
1039	 10199.7712157554 
1040	 10225.1410611571 
1041	 10248.3759918676 
1042	 10264.2738336299 
1043	 10275.9201736726 
1044	 10287.3293381002 
1045	 10295.9365536136 
1046	 10303.3640698434 
1047	 10309.5774121027 
1048	 10314.8662593433 
1049	 10323.8678777093 
1050	 10327.767272236 
1051	 10333.4802577638 
1052	 10347.9357493104 
1053	 10358.0745476036 
1054	 10364.8145953874 
1055	 10377.4461456568 
1056	 10392.4004561784 
1057	 10399.8780560777 
1058	 10412.0682755507 
1059	 10427.7294023706 
1060	 10451.5321089191 
1061	 10484.3168725993 
1062	 10520.4188481542 
1063	 10564.5258251709 
1064	 10605.941709477 
1065	 10645.5858298942 
1066	 10692.2615682379 
1067	 10748.0057123504 
1068	 10807.8639976735 
1069	 10883.4261810889 
1070	 10970.6375585379 
1071	 11058.0445264705 
1072	 11147.5895620935 
1073	 11240.8503498331 
1074	 11342.4859160328 
1075	 11452.4086320101 
1076	 11569.0995637251 
1077	 11697.2684414038 
1078	 11827.4546105259 
1079	 11956.4409125322 
1080	 12094.0015087803 
1081	 12240.7156577139 
1082	 12387.5540821135 
1083	 12541.2306232692 
1084	 12703.7245465906 
1085	 12861.8246683765 
1086	 13022.7906186442 
1087	 13185.045134447 
1088	 13347.9303673265 
1089	 13515.4420621488 
1090	 13684.2257985967 
1091	 13853.659249252 
1092	 14015.3577831343 
1093	 14170.95337353 
1094	 14321.0846814502 
1095	 14472.3116896642 
1096	 14616.7014978865 
1097	 14761.9333320302 
1098	 14910.7602111067 
1099	 15052.1237435948 
1100	 15191.5839994451 
1101	 15325.5435735671 
1102	 15455.1908827697 
1103	 15581.205118184 
1104	 15702.1600179132 
1105	 15817.6749673936 
1106	 15929.5419150178 
1107	 16036.5490729991 
1108	 16143.6730884215 
1109	 16246.5144043991 
1110	 16349.3612046407 
1111	 16452.0421861856 
1112	 16552.7528609935 
1113	 16653.1084092075 
1114	 16747.1109559566 
1115	 16834.3303140026 
1116	 16920.2281702731 
1117	 17006.4568264852 
1118	 17089.251830877 
1119	 17170.1042436219 
1120	 17251.8937537458 
1121	 17333.0163128752 
1122	 17408.6562566805 
1123	 17485.3702803589 
1124	 17562.5360239371 
1125	 17640.9436672086 
1126	 17717.5541898913 
1127	 17797.7889010901 
1128	 17879.8166967895 
1129	 17959.9631723851 
1130	 18030.3671091913 
1131	 18098.9033401715 
1132	 18165.9468189981 
1133	 18227.5560432988 
1134	 18290.9254277826 
1135	 18352.689894753 
1136	 18417.7719466487 
1137	 18489.6096758736 
1138	 18550.130587466 
1139	 18608.8500045338 
1140	 18662.4265833947 
1141	 18707.8226486821 
1142	 18747.7064744875 
1143	 18791.2245590372 
1144	 18833.2725141427 
1145	 18872.5146276009 
1146	 18915.2772854976 
1147	 18958.9999223133 
1148	 19004.7038708794 
1149	 19050.3240994998 
1150	 19098.1058035132 
1151	 19143.8730484651 
1152	 19185.80458984 
1153	 19233.1556863123 
1154	 19284.5529418106 
1155	 19332.9084190602 
1156	 19382.8427176856 
1157	 19435.6692246614 
1158	 19478.4602860216 
1159	 19516.6360252211 
1160	 19556.6191648213 
1161	 19598.3876355168 
1162	 19637.6588791483 
1163	 19678.122401995 
1164	 19716.0769400213 
1165	 19748.1266969701 
1166	 19784.6834445129 
1167	 19829.1065537978 
1168	 19862.5687685182 
1169	 19895.0959075884 
1170	 19921.6519091261 
1171	 19937.2035194009 
1172	 19950.8057862862 
1173	 19976.1468189301 
1174	 19998.1600313605 
1175	 20021.4711762407 
1176	 20049.6847353128 
1177	 20076.3378508451 
1178	 20102.8179755539 
1179	 20125.0661376246 
1180	 20149.3411220458 
1181	 20167.7701599905 
1182	 20175.2867364055 
1183	 20189.7035507911 
1184	 20202.8923738842 
1185	 20221.6833777143 
1186	 20249.8366686484 
1187	 20271.3042876971 
1188	 20292.0644894187 
1189	 20312.2018878505 
1190	 20334.0894597606 
1191	 20350.5315149261 
1192	 20373.8683012602 
1193	 20403.9555095565 
1194	 20430.8845331532 
1195	 20458.1534556984 
1196	 20484.1063530731 
1197	 20507.4481745555 
1198	 20537.000061022 
1199	 20570.148227241 
1200	 20600.2257314362 
1201	 20632.8073143987 
1202	 20665.0556419542 
1203	 20691.8274539988 
1204	 20723.3752437329 
1205	 20761.2888202129 
1206	 20800.0965748765 
1207	 20834.4632874292 
1208	 20867.722269931 
1209	 20901.5370435815 
1210	 20932.6630620623 
1211	 20964.9058643959 
1212	 20997.6824327421 
1213	 21032.8550453338 
1214	 21066.9038665084 
1215	 21103.5983785148 
1216	 21146.599916895 
1217	 21185.0069247118 
1218	 21223.6631853343 
1219	 21259.4457977976 
1220	 21291.1549273724 
1221	 21323.8940764253 
1222	 21355.4368168003 
1223	 21384.8539019974 
1224	 21415.4406732907 
1225	 21447.329973686 
1226	 21476.2540325748 
1227	 21505.9767281061 
1228	 21530.3927778583 
1229	 21548.9635097903 
1230	 21570.7395216814 
1231	 21594.0253786656 
1232	 21611.3261968496 
1233	 21627.3680932357 
1234	 21641.5710417649 
1235	 21652.6159404526 
1236	 21658.7889766513 
1237	 21661.9590633963 
1238	 21664.8093209924 
1239	 21662.4911642961 
1240	 21649.6828296655 
1241	 21647.4031246877 
1242	 21650.5821045314 
1243	 21646.0659768509 
1244	 21643.040597527 
1245	 21635.33915576 
1246	 21619.0049743306 
1247	 21606.7653633169 
1248	 21597.0495289533 
1249	 21583.7155670927 
1250	 21568.1946087072 
1251	 21552.5817068906 
1252	 21532.9557624447 
1253	 21516.4059299387 
1254	 21501.0113137758 
1255	 21486.5633226487 
1256	 21473.1023740466 
1257	 21461.8637738068 
1258	 21449.3027438089 
1259	 21436.8165327998 
1260	 21424.4655202439 
1261	 21415.6404430095 
1262	 21398.8778843955 
1263	 21379.7989280759 
1264	 21357.6392064968 
1265	 21330.6022136579 
1266	 21300.7540225314 
1267	 21271.6391057392 
1268	 21234.6342377771 
1269	 21190.7927063077 
1270	 21143.6645202254 
1271	 21089.7087470189 
1272	 21033.5507269821 
1273	 20978.3241300574 
1274	 20921.9975442022 
1275	 20861.5923959398 
1276	 20801.219207698 
1277	 20735.7118461647 
1278	 20663.9422837827 
1279	 20593.0803848452 
1280	 20518.6388862501 
1281	 20446.6809551459 
1282	 20371.9550876695 
1283	 20301.9621087149 
1284	 20233.1835770057 
1285	 20168.7102787127 
1286	 20106.14887801 
1287	 20049.0320065202 
1288	 19995.7597203931 
1289	 19947.3063565914 
1290	 19903.2004551564 
1291	 19864.8733113272 
1292	 19830.0333031212 
1293	 19800.1434199508 
1294	 19772.4600655294 
1295	 19749.2973083441 
1296	 19727.623756104 
1297	 19705.9442448184 
1298	 19692.9286045974 
1299	 19683.3198504632 
1300	 19680.5924701423 
1301	 19690.1039734355 
1302	 19694.9244665741 
1303	 19700.007611912 
1304	 19710.1009587726 
1305	 19720.7678400152 
1306	 19734.7358962801 
1307	 19756.3878072263 
1308	 19774.9043989385 
1309	 19797.7933306678 
1310	 19825.0655563202 
1311	 19852.2340872402 
1312	 19884.4046697049 
1313	 19913.6684688446 
1314	 19941.4067306443 
1315	 19971.185976221 
1316	 20003.701556044 
1317	 20032.0053073652 
1318	 20058.1537601746 
1319	 20086.2609213967 
1320	 20113.2778886218 
1321	 20140.0498415472 
1322	 20172.2017375327 
1323	 20197.0225948717 
1324	 20215.9277220394 
1325	 20235.5979381986 
1326	 20255.2703706208 
1327	 20267.7208433782 
1328	 20282.8085967598 
1329	 20296.6971713146 
1330	 20307.3576444897 
1331	 20315.4200842558 
1332	 20321.7888336177 
1333	 20324.2555234512 
1334	 20329.8940737403 
1335	 20336.1921973605 
1336	 20338.9332947079 
1337	 20343.2646631319 
1338	 20342.7164080379 
1339	 20340.1232696006 
1340	 20331.236338906 
1341	 20320.5419504505 
1342	 20302.4497923101 
1343	 20275.8694210315 
1344	 20246.6723233236 
1345	 20218.3006250187 
1346	 20176.8519405499 
1347	 20125.5664694545 
1348	 20071.0921741535 
1349	 20006.2524628714 
1350	 19931.9411353449 
1351	 19849.0641193885 
1352	 19757.6268747864 
1353	 19660.9431353968 
1354	 19547.5703339192 
1355	 19447.6125529408 
1356	 19353.3631395894 
1357	 19250.924532217 
1358	 19143.0446407557 
1359	 19044.1804775949 
1360	 18918.8014161154 
1361	 18844.5353540379 
1362	 18796.155278324 
1363	 18766.7536501168 
1364	 18787.2419956399 
1365	 18791.3901088145 
1366	 18802.5811168982 
1367	 18813.577042716 
1368	 18820.5268768511 
1369	 18830.4694715019 
1370	 18857.2094538327 
1371	 18892.7386233475 
1372	 18911.6142045185 
1373	 18951.3940971747 
1374	 18928.9941111852 
1375	 18892.3575218757 
1376	 18792.5392585306 
1377	 18635.8438901485 
1378	 18464.9959213644 
1379	 18224.1001674904 
1380	 18026.4603414779 
1381	 17794.629032942 
1382	 17632.569702228 
1383	 17511.4101652546 
1384	 17402.3499780445 
1385	 17362.8761526396 
1386	 17279.3804082887 
1387	 17210.7699337055 
1388	 17096.0198563547 
1389	 16958.2614974292 
1390	 16782.9977151109 
1391	 16575.1267053725 
1392	 16350.369804185 
1393	 16117.5763258106 
1394	 15889.4757258501 
1395	 15679.4335595518 
1396	 15474.968045947 
1397	 15287.60451485 
1398	 15120.1059384438 
1399	 14949.5678216694 
1400	 14790.7267383403 
1401	 14627.8464561521 
1402	 14461.7560053958 
1403	 14307.2927999831 
1404	 14153.2260433775 
1405	 14013.5510540452 
1406	 13883.946941878 
1407	 13764.2299112724 
1408	 13657.8192573572 
1409	 13556.1566601327 
1410	 13466.336081763 
1411	 13377.6058928056 
1412	 13291.4431605358 
1413	 13211.6797276522 
1414	 13137.7652287491 
1415	 13068.1195710071 
1416	 13001.0213978632 
1417	 12939.0501177965 
1418	 12874.7953447341 
1419	 12810.072319997 
1420	 12753.5992103217 
1421	 12701.0287240089 
1422	 12652.4502886457 
1423	 12608.6407472344 
1424	 12570.2756421747 
1425	 12539.3074097478 
1426	 12504.5131642546 
1427	 12474.3467221717 
1428	 12442.4909172876 
1429	 12402.4298610075 
1430	 12374.7262515521 
1431	 12351.5879719427 
1432	 12335.1988357706 
1433	 12329.6470958605 
1434	 12322.4009313844 
1435	 12321.707093641 
1436	 12317.4851692605 
1437	 12310.7525378675 
1438	 12306.1964712422 
1439	 12300.5802545787 
1440	 12297.1426298609 
1441	 12298.6299016482 
1442	 12307.8238988769 
1443	 12312.7103847348 
1444	 12318.7611811273 
1445	 12327.746584211 
1446	 12337.6681004146 
1447	 12344.283359364 
1448	 12353.1356936044 
1449	 12360.997618486 
1450	 12363.2034364117 
1451	 12370.6832928634 
1452	 12383.5246172164 
1453	 12393.4521990891 
1454	 12402.905299296 
1455	 12411.8794412259 
1456	 12419.3174823418 
1457	 12429.6021568844 
1458	 12439.6996638642 
1459	 12451.6949409633 
1460	 12466.3934268286 
1461	 12481.40067721 
1462	 12499.0860493587 
1463	 12513.8195190475 
1464	 12528.8852410564 
1465	 12542.9074284074 
1466	 12551.557704055 
1467	 12564.7452111442 
1468	 12579.5004538649 
1469	 12595.7426092918 
1470	 12613.8513716328 
1471	 12634.8120897637 
1472	 12657.6651910235 
1473	 12679.5121590228 
1474	 12702.1474714377 
1475	 12725.3533446247 
1476	 12750.2239348768 
1477	 12776.849349136 
1478	 12801.0006234205 
1479	 12824.1339667417 
1480	 12852.2609999647 
1481	 12879.7082632981 
1482	 12909.3568611281 
1483	 12945.4993884306 
1484	 12977.4626159968 
1485	 13009.255748166 
1486	 13038.4147370858 
1487	 13067.8178854335 
1488	 13093.3532412375 
1489	 13110.9275193754 
1490	 13134.9778649039 
1491	 13159.3052126447 
1492	 13185.8478663603 
1493	 13220.1375168729 
1494	 13247.5187098789 
1495	 13272.3651148067 
1496	 13296.3443464509 
1497	 13313.4092687086 
1498	 13336.1934887036 
1499	 13360.2170515088 
1500	 13386.7246832653 
1501	 13417.8881690935 
1502	 13450.1465416281 
1503	 13477.9018309847 
1504	 13505.3343003399 
1505	 13530.1555925624 
1506	 13555.175586294 
1507	 13576.2817549103 
1508	 13596.2061549507 
1509	 13615.0838909863 
1510	 13628.8247511792 
1511	 13646.7028614711 
1512	 13666.997261531 
1513	 13685.6857728436 
1514	 13704.3835921083 
1515	 13722.6182349342 
1516	 13738.0982385715 
1517	 13759.1904120779 
1518	 13786.6771893843 
1519	 13805.1252151229 
1520	 13822.4916214379 
1521	 13839.0715732353 
1522	 13846.5098600456 
1523	 13861.1286665061 
1524	 13882.1285315349 
1525	 13899.3511428519 
1526	 13919.8679683937 
1527	 13932.9942493298 
1528	 13940.3810168573 
1529	 13949.2208283649 
1530	 13950.2549554465 
1531	 13958.2974503594 
1532	 13970.8099462432 
1533	 13983.9357552475 
1534	 14003.5852278644 
1535	 14017.686794695 
1536	 14031.0650553037 
1537	 14041.3937428725 
1538	 14043.6930065159 
1539	 14051.1747243134 
1540	 14057.7478920628 
1541	 14068.6462857019 
1542	 14086.4627504744 
1543	 14100.3730917991 
1544	 14111.9183431137 
1545	 14123.4516604512 
1546	 14131.9510420082 
1547	 14136.5272840949 
1548	 14141.4509966851 
1549	 14145.9209680453 
1550	 14148.8032277983 
1551	 14147.5368159264 
1552	 14152.1594195553 
1553	 14157.589593997 
1554	 14165.7794164619 
1555	 14179.6392657058 
1556	 14188.6041850126 
1557	 14198.252794311 
1558	 14204.2672584623 
1559	 14207.0330133265 
1560	 14209.7286016842 
1561	 14210.0289269798 
1562	 14211.3406517164 
1563	 14213.082232434 
1564	 14212.9969043186 
1565	 14212.6966982038 
1566	 14210.665766379 
1567	 14204.6727514979 
1568	 14202.5297508293 
1569	 14202.4440557755 
1570	 14200.277684009 
1571	 14198.5909796131 
1572	 14196.9890037269 
1573	 14193.5539568781 
1574	 14191.0449696561 
1575	 14190.0918842339 
1576	 14188.7732482271 
1577	 14188.5772656273 
1578	 14185.3031948468 
1579	 14180.2020620502 
1580	 14175.843494072 
1581	 14168.812594244 
1582	 14163.1513605849 
1583	 14159.5331501246 
1584	 14155.143690177 
1585	 14150.288140916 
1586	 14145.2976558214 
1587	 14140.7748326409 
1588	 14135.4434865881 
1589	 14130.7272673946 
1590	 14123.5701094838 
1591	 14112.3193573962 
1592	 14104.2868019584 
1593	 14097.6819664212 
1594	 14089.3571002468 
1595	 14081.9518495443 
1596	 14074.754795215 
1597	 14067.3953729071 
1598	 14057.6564539684 
1599	 14050.2040616507 
1600	 14045.9525141552 
1601	 14036.6562955794 
1602	 14023.8972990117 
1603	 14015.8108020645 
1604	 14007.1979523392 
1605	 14000.9138461161 
1606	 13999.4532888421 
1607	 13992.4969327004 
1608	 13985.8633471069 
1609	 13972.0947347644 
1610	 13952.7429104187 
1611	 13936.5926239758 
1612	 13917.5632147085 
1613	 13898.276857564 
1614	 13880.5927824213 
1615	 13860.4729132322 
1616	 13836.4064254393 
1617	 13814.9602073978 
1618	 13794.1213796359 
1619	 13775.0644054046 
1620	 13757.6713533661 
1621	 13736.8482887512 
1622	 13716.2366252962 
1623	 13695.5921858833 
1624	 13672.5751475079 
1625	 13649.9706273542 
1626	 13629.9504756959 
1627	 13605.7117561218 
1628	 13577.797422498 
1629	 13551.3411811403 
1630	 13524.2927311208 
1631	 13496.6932329805 
1632	 13470.1959858471 
1633	 13439.6785634425 
1634	 13405.9302079404 
1635	 13373.8552732325 
1636	 13339.1349568821 
1637	 13306.7038094033 
1638	 13277.7963126234 
1639	 13244.61450885 
1640	 13209.3918425137 
1641	 13175.5668019893 
1642	 13141.0260820016 
1643	 13106.0248198398 
1644	 13071.3945892974 
1645	 13035.7502122371 
1646	 12997.6741639778 
1647	 12961.4406902598 
1648	 12925.9061562115 
1649	 12891.3435682581 
1650	 12861.205705178 
1651	 12823.7394479246 
1652	 12784.8771442921 
1653	 12742.6121301948 
1654	 12693.2858035599 
1655	 12645.0548129518 
1656	 12595.0705531562 
1657	 12545.7986150817 
1658	 12493.3914308201 
1659	 12446.342379565 
1660	 12405.9626495708 
1661	 12357.8826947154 
1662	 12311.2166715584 
1663	 12258.7195951926 
1664	 12197.1718376742 
1665	 12139.2912388835 
1666	 12075.8242695818 
1667	 12022.7193379024 
1668	 11973.4401617933 
1669	 11927.2595507866 
1670	 11892.9633178347 
1671	 11850.0539492021 
1672	 11800.1302564678 
1673	 11760.1329676882 
1674	 11726.1405913969 
1675	 11686.2957770383 
1676	 11651.4368728714 
1677	 11610.5889913549 
1678	 11558.0680202943 
1679	 11513.7620528714 
1680	 11478.2262172008 
1681	 11432.3679423845 
1682	 11383.1470346192 
1683	 11333.4082605378 
1684	 11273.0570787217 
1685	 11221.4426878614 
1686	 11175.1980371143 
1687	 11128.4182925841 
1688	 11083.8628049359 
1689	 11040.5943084811 
1690	 10998.8932243716 
1691	 10957.0724422857 
1692	 10917.7813516166 
1693	 10876.1313815471 
1694	 10834.1340349403 
1695	 10790.2590330578 
1696	 10745.0189288984 
1697	 10698.7224371579 
1698	 10647.6107943542 
1699	 10603.2013704678 
1700	 10562.5399041473 
1701	 10518.4694960928 
1702	 10474.2008484782 
1703	 10434.0052446463 
1704	 10392.7473639143 
1705	 10354.9078745399 
1706	 10325.8863567312 
1707	 10291.5275094709 
1708	 10255.995324133 
1709	 10216.388536415 
1710	 10173.0386631148 
1711	 10130.3013906918 
1712	 10082.6666445833 
1713	 10041.6156553804 
1714	 10006.9102131924 
1715	 9964.94676016696 
1716	 9920.53776794105 
1717	 9879.3024228755 
1718	 9834.87988680966 
1719	 9793.25481501336 
1720	 9758.16615330535 
1721	 9717.55326159749 
1722	 9674.60937496089 
1723	 9630.21562273396 
1724	 9581.07215688651 
1725	 9537.59979784567 
1726	 9496.15929432476 
1727	 9452.45002629527 
1728	 9410.2853496125 
1729	 9369.61740319403 
1730	 9326.0122118933 
1731	 9287.10410240996 
1732	 9253.53595090628 
1733	 9217.45305767501 
1734	 9182.38826967661 
1735	 9145.46352017575 
1736	 9107.31679620591 
1737	 9071.78603364888 
1738	 9035.27213808285 
1739	 8999.70477928343 
1740	 8967.62810611238 
1741	 8932.59526488773 
1742	 8896.7020139988 
1743	 8859.49739294862 
1744	 8821.70113769861 
1745	 8782.11763392035 
1746	 8738.81636651175 
1747	 8690.65158969402 
1748	 8647.17141649299 
1749	 8609.74715657324 
1750	 8569.2805333718 
1751	 8530.00223607013 
1752	 8495.59156404858 
1753	 8456.90010257227 
1754	 8416.74294447301 
1755	 8382.73060327332 
1756	 8339.27640097781 
1757	 8292.11182932336 
1758	 8252.05437394926 
1759	 8205.79035787179 
1760	 8159.23179481382 
1761	 8118.06361999692 
1762	 8074.03066466726 
1763	 8033.65798414962 
1764	 7997.97878350406 
1765	 7956.91805929691 
1766	 7920.75728585877 
1767	 7889.33771124002 
1768	 7851.70443317636 
1769	 7818.52212022096 
1770	 7780.01547744863 
1771	 7732.13271785846 
1772	 7689.65665951412 
1773	 7649.29710036594 
1774	 7611.98560966972 
1775	 7577.25828557531 
1776	 7546.02049734288 
1777	 7509.08710073035 
1778	 7468.30390316471 
1779	 7435.23755882256 
1780	 7396.79952674961 
1781	 7364.83043089138 
1782	 7328.5817413408 
1783	 7287.09831196126 
1784	 7249.8103234551 
1785	 7216.49118533987 
1786	 7178.44754417989 
1787	 7136.47420950886 
1788	 7096.39661416453 
1789	 7051.3715152627 
1790	 7010.14823968602 
1791	 6976.97101352488 
1792	 6940.25931307945 
1793	 6904.40966870707 
1794	 6864.32448052134 
1795	 6817.44396212762 
1796	 6775.99864892029 
1797	 6732.99059523684 
1798	 6690.35341781129 
1799	 6653.13347805234 
1800	 6613.26944689243 
1801	 11666.8728076518 
1802	 11812.1113193323 
1803	 11947.2441404514 
1804	 12082.811784595 
1805	 12220.8338936449 
1806	 12343.4186824494 
1807	 12449.8580647839 
1808	 12548.2947083475 
1809	 12631.8098141139 
1810	 12709.6455760254 
1811	 12775.4016832447 
1812	 12840.5683709352 
1813	 12901.7587040435 
1814	 12953.2150722066 
1815	 12989.2405540421 
1816	 13032.036376615 
1817	 13058.4655696116 
1818	 13087.4129485057 
1819	 13135.7033100928 
1820	 13196.685708891 
1821	 13259.5037456815 
1822	 13340.0600598033 
1823	 13421.8001243723 
1824	 13471.4482692191 
1825	 13527.56890977 
1826	 13569.1603524862 
1827	 13593.3507690606 
1828	 13637.780221205 
1829	 13705.314855014 
1830	 13743.9368867297 
1831	 13779.234318699 
1832	 13811.1912003988 
1833	 13804.672333933 
1834	 13786.7729640235 
1835	 13761.2720875178 
1836	 13745.4564568189 
1837	 13759.1812866011 
1838	 13787.2040561517 
1839	 13848.4549537218 
1840	 13978.217105324 
1841	 14056.5928806478 
1842	 14143.790216284 
1843	 14224.0202653908 
1844	 14225.4220118905 
1845	 14218.7328197077 
1846	 14240.5996557552 
1847	 14255.375921941 
1848	 14293.2611948402 
1849	 14394.8211146942 
1850	 14428.5925886379 
1851	 14440.3987744721 
1852	 14446.9050455924 
1853	 14422.1479325888 
1854	 14374.8407565039 
1855	 14327.1573844647 
1856	 14286.9027284217 
1857	 14251.9102560118 
1858	 14225.6920083053 
1859	 14204.4222572408 
1860	 14225.591341997 
1861	 14182.1992494529 
1862	 14128.0929576372 
1863	 14044.026388158 
1864	 13899.9161891472 
1865	 13705.4145925962 
1866	 13450.8105265352 
1867	 13177.5909114812 
1868	 12893.9111227133 
1869	 12620.7326491379 
1870	 12398.8363560012 
1871	 12212.2501459356 
1872	 12055.3849328508 
1873	 11946.8513858528 
1874	 11867.9629356799 
1875	 11821.0901136406 
1876	 11770.7118502646 
1877	 11694.1523463011 
1878	 11600.7121228282 
1879	 11452.4234380377 
1880	 11281.8354823604 
1881	 11105.6908400899 
1882	 10909.1166437837 
1883	 10702.5364016167 
1884	 10499.8019222655 
1885	 10289.187850387 
1886	 10073.074742392 
1887	 9854.70238669272 
1888	 9638.88423401886 
1889	 9438.32988308998 
1890	 9262.31453577111 
1891	 9092.08304145578 
1892	 8934.44009817903 
1893	 8789.7330645057 
1894	 8643.46402418062 
1895	 8479.13336562772 
1896	 8313.84144619465 
1897	 8140.45591134258 
1898	 7974.69798434197 
1899	 7833.97358620916 
1900	 7709.76841975285 
1901	 7613.21102020201 
1902	 7525.6390586434 
1903	 7456.61782151106 
1904	 7391.20031211808 
1905	 7342.02583163772 
1906	 7297.47830276394 
1907	 7258.86103640188 
1908	 7239.55234833314 
1909	 7215.08854996721 
1910	 7179.72350279244 
1911	 7152.03101758723 
1912	 7112.02780332454 
1913	 7077.94803456667 
1914	 7040.03830256077 
1915	 7027.64947024427 
1916	 7008.49374177078 
1917	 6979.06961598729 
1918	 6954.25246635729 
1919	 6916.33194836844 
1920	 6886.62572091637 
1921	 6881.50446182089 
1922	 6893.30886199284 
1923	 6926.34952145261 
1924	 6940.10850264249 
1925	 6952.43032605018 
1926	 6952.82172175215 
1927	 6957.0548672099 
1928	 6946.53865710254 
1929	 6948.4967497121 
1930	 6972.94453781764 
1931	 6989.88765257551 
1932	 7005.05395835299 
1933	 7022.97777889851 
1934	 7031.92916785796 
1935	 7042.64160471234 
1936	 7051.44570531046 
1937	 7061.94128712512 
1938	 7070.25504865611 
1939	 7087.92174784302 
1940	 7106.26553913413 
1941	 7125.36869043086 
1942	 7151.24998254354 
1943	 7165.5427752241 
1944	 7183.20422842741 
1945	 7209.83976916261 
1946	 7234.84159473757 
1947	 7266.41465957758 
1948	 7292.89746122306 
1949	 7322.07200389125 
1950	 7334.9744392073 
1951	 7349.38991747116 
1952	 7369.77031277717 
1953	 7391.26620240996 
1954	 7420.40070556444 
1955	 7443.43532540772 
1956	 7458.36607616593 
1957	 7474.84915700981 
1958	 7498.72308815246 
1959	 7524.42554710685 
1960	 7558.26121497438 
1961	 7589.20940750082 
1962	 7615.94683907907 
1963	 7637.11232921821 
1964	 7649.36911930238 
1965	 7661.29136818864 
1966	 7683.68180030419 
1967	 7696.53641996074 
1968	 7704.53354974377 
1969	 7725.87888722122 
1970	 7747.14753309241 
1971	 7767.95817597249 
1972	 7790.0166247509 
1973	 7822.25142639944 
1974	 7840.20782220716 
1975	 7853.14919375183 
1976	 7874.50423965058 
1977	 7895.06627741636 
1978	 7916.27373228657 
1979	 7940.97053456424 
1980	 7961.34769501327 
1981	 7984.1646678467 
1982	 8012.53633157443 
1983	 8034.69313042774 
1984	 8059.37674436879 
1985	 8073.87443352338 
1986	 8077.1111269901 
1987	 8082.61637890286 
1988	 8094.67372380839 
1989	 8112.1059801313 
1990	 8138.31416838566 
1991	 8163.92121382099 
1992	 8179.06640277901 
1993	 8182.89180463752 
1994	 8201.12710821379 
1995	 8226.02149121149 
1996	 8244.80271421776 
1997	 8275.45747307881 
1998	 8296.14513629603 
1999	 8306.76978359107 
2000	 8310.97045622937 
2001	 8326.88006308791 
2002	 8336.8282512048 
2003	 8352.65403959416 
2004	 8371.29846956404 
2005	 8383.9804020858 
2006	 8404.83191393764 
2007	 8420.9582162315 
2008	 8434.9174110274 
2009	 8448.68814668048 
2010	 8458.41577474088 
2011	 8469.92118248538 
2012	 8480.85993384065 
2013	 8495.74342403509 
2014	 8514.38147737471 
2015	 8533.28764646406 
2016	 8546.25323091653 
2017	 8551.73837937655 
2018	 8542.62126422048 
2019	 8541.71285832987 
2020	 8546.49707957426 
2021	 8561.46351420366 
2022	 8561.25735185119 
2023	 8555.12245144824 
2024	 8555.94991330812 
2025	 8553.49122671945 
2026	 8547.2149549949 
2027	 8544.50993881068 
2028	 8550.75641468152 
2029	 8546.38282256321 
2030	 8530.84360461861 
2031	 8536.79326935981 
2032	 8540.82225579709 
2033	 8536.93083157697 
2034	 8531.48164981658 
2035	 8523.32344287747 
2036	 8503.47490041564 
2037	 8494.061696991 
2038	 8490.15498432162 
2039	 8484.65816818917 
2040	 8485.16793849752 
2041	 8476.4273700862 
2042	 8469.81341573628 
2043	 8457.50428912123 
2044	 8440.3507522718 
2045	 8431.26549057498 
2046	 8417.266895146 
2047	 8401.10333481306 
2048	 8391.45315373808 
2049	 8390.80234485296 
2050	 8379.80543515101 
2051	 8368.83016475584 
2052	 8355.73851533421 
2053	 8336.98716700303 
2054	 8315.10831906511 
2055	 8301.64442179286 
2056	 8285.93387537971 
2057	 8276.37732204532 
2058	 8277.47020990791 
2059	 8277.82203565621 
2060	 8274.78619401872 
2061	 8266.04195293993 
2062	 8246.91090461902 
2063	 8238.704383177 
2064	 8232.40306554199 
2065	 8226.94179804835 
2066	 8230.22288884041 
2067	 8224.19043496157 
2068	 8210.5046159022 
2069	 8200.49169399871 
2070	 8195.6009717255 
2071	 8190.96668462978 
2072	 8188.35865230903 
2073	 8183.17571843193 
2074	 8173.89207645507 
2075	 8176.66721255182 
2076	 8178.30890785197 
2077	 8186.33283568091 
2078	 8189.25216597395 
2079	 8194.35695663997 
2080	 8188.8207046779 
2081	 8177.69551190949 
2082	 8168.70553658573 
2083	 8152.67940334913 
2084	 8137.51545425213 
2085	 8137.00626498719 
2086	 8132.1482349472 
2087	 8133.21354318998 
2088	 8131.9252785514 
2089	 8119.11530548827 
2090	 8113.65302358289 
2091	 8109.08208078367 
2092	 8114.46097820529 
2093	 8113.44289098666 
2094	 8120.18351946529 
2095	 8112.66393054525 
2096	 8087.57639856684 
2097	 8074.19985453171 
2098	 8060.41862009895 
2099	 8052.00161612486 
2100	 8045.20832029088 
2101	 8052.95087658021 
2102	 8060.59922595618 
2103	 8057.46735625 
2104	 8059.44310699607 
2105	 8059.46275482349 
2106	 8051.71256828452 
2107	 8052.94915762222 
2108	 8054.17277921962 
2109	 8058.77765105507 
2110	 8058.59912741196 
2111	 8061.0062094615 
2112	 8057.30417181239 
2113	 8043.6422342369 
2114	 8038.36350111229 
2115	 8031.73026141395 
2116	 8029.2410508317 
2117	 8033.50776621618 
2118	 8041.78225143468 
2119	 8036.3097256337 
2120	 8028.25775290159 
2121	 8025.16306338344 
2122	 8026.00424689155 
2123	 8023.04673888864 
2124	 8028.76219570903 
2125	 8025.96453931486 
2126	 8011.39005547397 
2127	 8001.59815259519 
2128	 7993.59373047268 
2129	 7984.81298077797 
2130	 7973.72283809066 
2131	 7965.74065812773 
2132	 7958.09368778926 
2133	 7953.0723274279 
2134	 7949.73719024439 
2135	 7952.136456773 
2136	 7947.08274030723 
2137	 7944.48199239686 
2138	 7938.42693267267 
2139	 7927.77610031187 
2140	 7927.87409998352 
2141	 7926.0453270486 
2142	 7915.97568339751 
2143	 7910.28467928484 
2144	 7905.87882559821 
2145	 7898.41566903011 
2146	 7893.26409513998 
2147	 7895.61018667395 
2148	 7892.17224126842 
2149	 7884.49789967926 
2150	 7875.53002759715 
2151	 7865.61777166914 
2152	 7854.63826037231 
2153	 7839.93063259025 
2154	 7835.84635320347 
2155	 7835.81792262415 
2156	 7831.0703815784 
2157	 7822.56255091932 
2158	 7808.114296346 
2159	 7788.49578727817 
2160	 7772.68538649264 
2161	 7759.18780528939 
2162	 7745.46885208274 
2163	 7738.43779249864 
2164	 7739.81151689832 
2165	 7733.7661563889 
2166	 7731.95755626926 
2167	 7723.24522179713 
2168	 7700.10532724043 
2169	 7690.63898727368 
2170	 7690.21046010907 
2171	 7681.07987862766 
2172	 7676.13370136381 
2173	 7666.94839693373 
2174	 7644.66858241683 
2175	 7627.88638116407 
2176	 7615.06820141465 
2177	 7601.68707105165 
2178	 7582.28994086714 
2179	 7568.4492273453 
2180	 7553.8199137335 
2181	 7538.74780822027 
2182	 7528.97563436375 
2183	 7526.94021989926 
2184	 7515.84186883676 
2185	 7504.59133658823 
2186	 7491.54767161059 
2187	 7473.68133346325 
2188	 7458.67208334863 
2189	 7446.98041777276 
2190	 7431.02715179608 
2191	 7416.64147556557 
2192	 7390.91507720586 
2193	 7363.80111213089 
2194	 7334.3608339863 
2195	 7307.54315692868 
2196	 7294.5658503938 
2197	 7287.8093447457 
2198	 7271.84613301887 
2199	 7247.53767980596 
2200	 7217.97663427281 
2201	 7185.77499041188 
2202	 7164.57880989342 
2203	 7149.90357128452 
2204	 7133.63840964015 
2205	 7116.87150188333 
2206	 7104.24542031631 
2207	 7081.51437942435 
2208	 7052.48205831616 
2209	 7025.57413523174 
2210	 6991.06712929157 
2211	 6963.34172656945 
2212	 6941.87010372512 
2213	 6917.00979925203 
2214	 6894.05268332254 
2215	 6864.60998811864 
2216	 6843.2699521584 
2217	 6820.1953720373 
2218	 6788.31256779609 
2219	 6761.94653790005 
2220	 6730.03147608084 
2221	 6697.63892041 
2222	 6673.8665734308 
2223	 6654.38384497339 
2224	 6639.64865182531 
2225	 6617.99531815767 
2226	 6592.07123142863 
2227	 6567.47209687317 
2228	 6537.32762871508 
2229	 6498.60943112515 
2230	 6463.65256310202 
2231	 6428.93111565011 
2232	 6390.68149884353 
2233	 6349.30538171087 
2234	 6309.01305245759 
2235	 6267.58206994079 
2236	 6227.3701446373 
2237	 6185.19776015198 
2238	 6147.11187091446 
2239	 6114.01287327634 
2240	 6075.82701027393 
2241	 6033.80648658273 
2242	 5993.37592814017 
2243	 5945.40164290522 
2244	 5895.93355755255 
2245	 5844.90320083887 
2246	 5791.22681568743 
2247	 5743.83617742609 
2248	 5696.62770665422 
2249	 5649.27404441115 
2250	 5611.45591797717 
2251	 5564.54654574026 
2252	 5508.23126395009 
2253	 5464.38275625347 
2254	 5418.71309307996 
2255	 5369.67098423659 
2256	 5319.44473560478 
2257	 5273.58309895296 
2258	 5226.63867864843 
2259	 5180.05987251429 
2260	 5139.51881474675 
2261	 5092.5366734315 
2262	 5033.62903195865 
2263	 4985.81103133898 
2264	 4942.859639064 
2265	 4901.7884917351 
2266	 4872.58281838338 
2267	 4835.35660718157 
2268	 4794.90207454279 
2269	 4749.72656733155 
2270	 4710.22537175731 
2271	 4675.63687143405 
2272	 4643.6338191118 
2273	 4611.96968155146 
2274	 4578.48363141595 
2275	 4544.662781363 
2276	 4512.72132506098 
2277	 4484.54060002072 
2278	 4457.99394479107 
2279	 4427.94285337284 
2280	 4397.02039457641 
2281	 4361.79496341202 
2282	 4326.19545168547 
2283	 4304.27156758056 
2284	 4285.66891707882 
2285	 4267.25164730807 
2286	 4243.47107018189 
2287	 4201.95613960642 
2288	 4162.76490211861 
2289	 4110.58551137762 
2290	 4072.74458694102 
2291	 4044.90065195109 
2292	 4009.69647621832 
2293	 3974.93268579017 
2294	 3941.37257258869 
2295	 3900.00678492846 
2296	 3863.89002506032 
2297	 3838.20435914636 
2298	 3803.76154092502 
2299	 3766.32859330042 
2300	 3734.93501551746 
2301	 3706.43245263809 
2302	 3663.12791512752 
2303	 3635.76860972631 
2304	 3605.74819096554 
2305	 3561.79383245818 
2306	 3525.55557136014 
2307	 3476.19800691502 
2308	 3427.76008772634 
2309	 3399.11523025866 
2310	 3365.82980929201 
2311	 3344.1608887777 
2312	 3323.00093192201 
2313	 3287.75891506836 
2314	 3268.04944821184 
2315	 3248.62903289549 
2316	 3217.77031446322 
2317	 3186.97169008284 
2318	 3156.82558727085 
2319	 3132.97955184997 
2320	 3103.96189194573 
2321	 3077.86818703055 
2322	 3055.57837514462 
2323	 3021.70844604779 
2324	 2994.38775075161 
2325	 2972.01505376411 
2326	 2942.53043778274 
2327	 2914.65587481951 
2328	 2882.68930214512 
2329	 2843.93992919779 
2330	 2806.63213718136 
2331	 2772.67566606326 
2332	 2739.15995443969 
2333	 2712.64902663597 
2334	 2694.29485680346 
2335	 2667.8365453673 
2336	 2640.09361048809 
2337	 2611.75299240461 
2338	 2579.94106454854 
2339	 2552.49268278193 
2340	 2526.56352818113 
2341	 2499.43780757129 
2342	 2471.26184147779 
2343	 2446.26658273188 
2344	 2425.43227237105 
2345	 2404.93471513762 
2346	 2389.87063358632 
2347	 2366.66781103498 
2348	 2333.32776612628 
2349	 2311.26752781493 
2350	 2306.23160102978 
2351	 2290.37411085282 
2352	 2276.24420024295 
2353	 2264.24908661757 
2354	 2231.00345104728 
2355	 2194.85020785817 
2356	 2174.66945575434 
2357	 2141.16571322323 
2358	 2106.01406695739 
2359	 2087.27453241475 
2360	 2060.9763059601 
2361	 2038.4937293897 
2362	 2022.23017267331 
2363	 1997.29645505233 
2364	 1974.77312087743 
2365	 1955.77397266488 
2366	 1942.33199060371 
2367	 1934.69944460519 
2368	 1919.30718576723 
2369	 1906.29730045532 
2370	 1893.07130664371 
2371	 1866.71567248472 
2372	 1844.67070712484 
2373	 1829.98124326902 
2374	 1802.74425992724 
2375	 1777.19635839567 
2376	 1759.83952948158 
2377	 1731.80135102956 
2378	 1709.96869409123 
2379	 1692.42480350923 
2380	 1670.99718197278 
2381	 1661.88693692934 
2382	 1652.9989469549 
2383	 1634.46468031108 
2384	 1615.67036122619 
2385	 1592.08864885699 
2386	 1566.51363123561 
2387	 1547.41065895081 
2388	 1532.93075690238 
2389	 1519.6457363923 
2390	 1503.97257298719 
2391	 1485.94302511815 
2392	 1464.20077661514 
2393	 1444.98599304988 
2394	 1426.57404205656 
2395	 1408.75052635366 
2396	 1389.97690468345 
2397	 1373.97501688814 
2398	 1358.30612547861 
2399	 1339.43386558352 
2400	 1326.77243009609 
2401	 1298.478422142 
2402	 1270.61553849984 
2403	 1256.57380245884 
2404	 1237.32289319383 
2405	 1224.7202427905 
2406	 1211.45101741606 
2407	 1189.68644691124 
2408	 1170.66569746623 
2409	 1153.06577563033 
2410	 1143.84348618381 
2411	 1135.75672059407 
2412	 1119.93439957728 
2413	 1110.1263078725 
2414	 1099.29695767459 
2415	 1077.70807262336 
2416	 1058.23751778479 
2417	 1040.22360472088 
2418	 1023.07632034358 
2419	 1012.5347039127 
2420	 993.205082426415 
2421	 975.677854138142 
2422	 962.58898836393 
2423	 947.480171872132 
2424	 944.899679542507 
2425	 939.810028153568 
2426	 926.850698658963 
2427	 917.138742124521 
2428	 902.604557241175 
2429	 882.795408405226 
2430	 868.271680966528 
2431	 848.034744273342 
2432	 823.086911579 
2433	 818.616563336821 
2434	 818.255658953822 
2435	 811.284608039323 
2436	 811.12224931763 
2437	 804.386852962189 
2438	 788.323069846546 
2439	 774.914545560298 
2440	 766.651403843103 
2441	 755.98274643988 
2442	 741.278925890855 
2443	 734.027564620538 
2444	 726.726292395405 
2445	 710.547643389982 
2446	 696.901290816496 
2447	 683.9728431893 
2448	 670.997372535522 
2449	 664.958790541386 
2450	 658.45095605914 
2451	 639.944395325331 
2452	 622.779692632067 
2453	 613.67415614371 
2454	 601.84026611914 
2455	 603.530873905153 
2456	 601.745693766338 
2457	 583.936864229392 
2458	 577.679843638461 
2459	 561.157572687181 
2460	 536.476139458544 
2461	 535.723733246919 
2462	 534.717116596086 
2463	 528.639140430152 
2464	 538.750066211799 
2465	 540.482145891537 
2466	 528.632536224268 
2467	 527.920049385252 
2468	 523.262600438404 
2469	 511.911386609176 
2470	 505.718526791881 
2471	 498.857173544395 
2472	 491.912629659438 
2473	 487.107353416345 
2474	 478.491687815244 
2475	 462.210206832629 
2476	 444.909903798512 
2477	 430.119012973094 
2478	 427.206342562125 
2479	 425.245672855412 
2480	 418.389109186713 
2481	 419.630470783901 
2482	 406.612853452029 
2483	 393.213545886074 
2484	 394.922583504124 
2485	 389.41166515416 
2486	 385.393277782495 
2487	 383.038645889073 
2488	 376.675240420037 
2489	 370.96564208701 
2490	 372.128573190771 
2491	 371.589843383221 
2492	 368.980301220855 
2493	 368.717129719476 
2494	 354.10370305019 
2495	 345.288294312364 
2496	 344.0483373582 
2497	 339.688519790283 
2498	 335.741087526952 
2499	 331.452113735679 
2500	 330.892799418386 
