Wavelength	spectrum00001.asd
350	 17.1126764755798 
351	 17.8778393805694 
352	 16.8113596748753 
353	 16.5839320806994 
354	 19.5972736096002 
355	 21.4757064671918 
356	 22.1967047627862 
357	 22.5792168869456 
358	 23.9498963413622 
359	 25.3878326650934 
360	 26.8925925686947 
361	 28.2681184655131 
362	 28.3478886947808 
363	 29.1364611528299 
364	 31.3610417585409 
365	 34.7780902522349 
366	 37.0799136944857 
367	 39.3106733329811 
368	 41.6512999015389 
369	 42.9295902095013 
370	 45.9970350001784 
371	 48.3000347551225 
372	 48.0057894970771 
373	 50.1184466058203 
374	 53.3063785007663 
375	 56.5678789327303 
376	 59.1403296644959 
377	 60.6798413307786 
378	 62.3087483448632 
379	 64.7518265796107 
380	 67.6121622320852 
381	 71.0693020642055 
382	 73.999289240413 
383	 75.4849069041012 
384	 78.0617967295899 
385	 81.5482180794805 
386	 84.6415598887412 
387	 85.2121649390774 
388	 87.9683357632157 
389	 91.8696389199765 
390	 95.1738568288631 
391	 98.2593893414545 
392	 100.449439012168 
393	 102.756507337427 
394	 106.930047966888 
395	 111.593427135907 
396	 114.959809697639 
397	 116.933889231167 
398	 120.317829244434 
399	 125.556494762061 
400	 130.911713674737 
401	 134.59350332945 
402	 139.422312680676 
403	 143.362771687574 
404	 146.730428457075 
405	 152.426498528261 
406	 159.141447686617 
407	 164.892861629224 
408	 169.086927017275 
409	 175.691166826506 
410	 183.070425223234 
411	 189.823007791439 
412	 195.09071487286 
413	 202.16194802562 
414	 210.607471863452 
415	 219.329976327283 
416	 226.905736818193 
417	 235.02207064335 
418	 243.91927081971 
419	 253.209267620584 
420	 261.929495845249 
421	 272.902179696339 
422	 284.904783799562 
423	 292.042667997243 
424	 301.827078721854 
425	 313.175996223098 
426	 323.974902778697 
427	 336.176286272726 
428	 348.686705012057 
429	 360.460156464585 
430	 370.838526266479 
431	 383.28741218309 
432	 396.170850942305 
433	 408.346899705191 
434	 421.800252005045 
435	 433.455137942755 
436	 444.670001016267 
437	 458.000866742133 
438	 470.045091137432 
439	 482.243457819542 
440	 495.371607271926 
441	 508.770288608398 
442	 521.149303988615 
443	 532.717682661085 
444	 544.294187094468 
445	 557.145295128152 
446	 568.816600891019 
447	 578.974027147424 
448	 589.294440267966 
449	 600.38243823936 
450	 611.009085649925 
451	 620.108530811526 
452	 628.131072159253 
453	 635.17246466806 
454	 642.031474192488 
455	 649.712704730576 
456	 657.372282560647 
457	 664.155228696016 
458	 669.759443754903 
459	 674.770055675189 
460	 680.051953782518 
461	 685.455693282095 
462	 690.443313248487 
463	 694.98724664942 
464	 698.753026960478 
465	 702.355989010156 
466	 707.521452559478 
467	 711.63368492525 
468	 715.293352357227 
469	 719.629803758079 
470	 724.337761248544 
471	 730.142383773521 
472	 736.00212316616 
473	 739.792013347714 
474	 745.982099175083 
475	 752.097681863283 
476	 756.322128314629 
477	 761.336443563311 
478	 768.921083563725 
479	 777.387269339615 
480	 783.491661201147 
481	 788.680950037284 
482	 794.262376561879 
483	 800.603222737601 
484	 806.35041180114 
485	 814.582464127041 
486	 822.509564604391 
487	 826.68349950571 
488	 831.764299389538 
489	 838.939556119658 
490	 847.260953780624 
491	 853.636788466894 
492	 862.416774894885 
493	 871.898401889659 
494	 880.113888560467 
495	 889.794038126901 
496	 900.286621792936 
497	 911.730289649425 
498	 924.748967247479 
499	 937.379896174238 
500	 949.628804015677 
501	 962.642815435577 
502	 979.778746555971 
503	 996.240299922142 
504	 1011.91783225887 
505	 1029.04437492702 
506	 1047.42095971223 
507	 1066.23711638467 
508	 1085.66238584372 
509	 1107.74289541457 
510	 1131.06221700186 
511	 1156.03105127555 
512	 1183.27963100173 
513	 1211.10073356866 
514	 1240.52079451842 
515	 1272.10122790821 
516	 1305.64893159115 
517	 1341.61996225926 
518	 1378.96855094389 
519	 1417.02788782397 
520	 1457.97311665608 
521	 1500.85987578385 
522	 1545.11074029326 
523	 1590.44709926586 
524	 1635.88419276333 
525	 1681.70787364822 
526	 1728.73872547789 
527	 1778.89867245682 
528	 1827.7581496588 
529	 1874.22801144149 
530	 1919.36706611458 
531	 1965.33479425674 
532	 2010.61215026272 
533	 2055.42649248331 
534	 2104.48192147759 
535	 2150.4457669984 
536	 2193.0515195424 
537	 2234.46473451672 
538	 2273.81654096764 
539	 2313.67360305432 
540	 2353.82513804953 
541	 2390.38850712078 
542	 2428.9075287591 
543	 2468.34496206114 
544	 2506.80541215836 
545	 2546.61188559928 
546	 2585.95100114127 
547	 2624.2548930417 
548	 2662.12013260752 
549	 2699.86078398229 
550	 2736.86624047588 
551	 2772.71427509191 
552	 2808.14967892034 
553	 2841.91927354286 
554	 2873.05855182518 
555	 2900.80652179445 
556	 2924.67395887084 
557	 2945.64307626783 
558	 2964.69619183013 
559	 2982.6568021253 
560	 2996.9907486914 
561	 3007.00728384505 
562	 3012.84645767601 
563	 3014.42529126397 
564	 3014.56474866222 
565	 3012.73388456798 
566	 3003.89208241077 
567	 2996.34406745833 
568	 2988.38276725734 
569	 2976.77874494247 
570	 2963.11521926329 
571	 2954.58731163721 
572	 2951.49063933221 
573	 2948.16411814056 
574	 2947.84396114563 
575	 2949.67716587595 
576	 2952.99143557437 
577	 2959.46962177148 
578	 2969.09250731974 
579	 2981.56491913581 
580	 2996.55097749374 
581	 3016.36797078212 
582	 3034.20074428514 
583	 3046.87280402255 
584	 3060.17822004792 
585	 3067.01673194331 
586	 3069.83735310676 
587	 3073.72283093077 
588	 3076.12863839702 
589	 3078.1400494829 
590	 3080.34987623239 
591	 3082.5067473597 
592	 3084.26648466748 
593	 3083.47641361525 
594	 3078.55527098925 
595	 3071.01561239623 
596	 3065.20364049845 
597	 3062.22953518901 
598	 3060.4685758407 
599	 3060.65752391548 
600	 3061.07590664649 
601	 3060.60109367963 
602	 3060.48858057989 
603	 3061.49428495635 
604	 3061.18073225201 
605	 3056.33665768483 
606	 3052.1498713013 
607	 3048.64032592169 
608	 3044.98707854128 
609	 3039.87621145606 
610	 3036.25104222882 
611	 3032.08278519154 
612	 3024.9881342964 
613	 3019.54673263787 
614	 3014.89173484752 
615	 3011.32231975522 
616	 3010.53192946285 
617	 3008.86592672736 
618	 3007.6532223744 
619	 3008.54857919085 
620	 3010.20526951189 
621	 3014.25172468667 
622	 3020.55264768656 
623	 3027.7358780667 
624	 3034.90696487522 
625	 3043.16471389251 
626	 3052.96905139624 
627	 3062.77697543546 
628	 3073.88132532203 
629	 3084.94345863897 
630	 3093.79310521836 
631	 3100.04734962201 
632	 3106.4097579329 
633	 3113.16961770275 
634	 3117.31938030789 
635	 3117.59529642852 
636	 3115.10138153923 
637	 3111.4191846291 
638	 3106.49734200202 
639	 3102.69993917287 
640	 3098.40117608702 
641	 3089.43120402531 
642	 3082.70759588742 
643	 3076.19381140567 
644	 3068.09727205739 
645	 3060.40750739001 
646	 3056.04543034743 
647	 3053.72498988378 
648	 3050.6132306717 
649	 3048.51575970871 
650	 3049.60418006981 
651	 3053.61989559976 
652	 3056.93364770272 
653	 3063.10902542298 
654	 3069.4382753975 
655	 3073.63654199167 
656	 3082.49002570351 
657	 3089.76932245231 
658	 3095.72323640094 
659	 3105.75444238236 
660	 3115.25908743996 
661	 3124.55040808603 
662	 3135.02075964754 
663	 3148.87832757286 
664	 3162.30473510246 
665	 3175.57507973097 
666	 3190.78638569568 
667	 3208.4055800591 
668	 3227.37804884372 
669	 3246.72263831579 
670	 3265.7163954357 
671	 3290.27117106056 
672	 3316.60667832294 
673	 3340.8196621135 
674	 3369.71684914115 
675	 3398.09445830541 
676	 3426.15252776316 
677	 3458.05777944564 
678	 3490.8948320059 
679	 3525.61893811279 
680	 3562.91931635625 
681	 3601.63032699936 
682	 3642.60968924933 
683	 3685.88490219545 
684	 3731.36787930684 
685	 3779.79734375338 
686	 3833.3701581063 
687	 3892.18645418048 
688	 3953.93792950817 
689	 4024.73060059655 
690	 4104.19091806017 
691	 4192.12004692759 
692	 4293.95496651025 
693	 4407.6494194588 
694	 4535.43792139669 
695	 4681.44200396161 
696	 4840.97347003178 
697	 5020.13663796157 
698	 5221.80269642459 
699	 5441.35712535831 
700	 5682.01936124867 
701	 5939.86667183507 
702	 6209.86402342239 
703	 6493.33694448324 
704	 6787.51221322409 
705	 7090.28459875401 
706	 7400.38626185511 
707	 7717.91042541475 
708	 8043.18046014937 
709	 8376.06101159141 
710	 8715.45929441891 
711	 9059.37352794525 
712	 9408.66061900832 
713	 9765.2004549858 
714	 10128.6989964927 
715	 10496.5629903102 
716	 10867.7239000943 
717	 11243.0535032235 
718	 11622.6201901583 
719	 12007.0722469943 
720	 12395.9428638793 
721	 12785.9064043293 
722	 13174.7491902547 
723	 13561.383786879 
724	 13945.3282639404 
725	 14324.6824236415 
726	 14699.8213839628 
727	 15071.5961204602 
728	 15441.1374104058 
729	 15804.9995317175 
730	 16162.8914774549 
731	 16514.6923465695 
732	 16857.4498265645 
733	 17194.6590778989 
734	 17525.5212833863 
735	 17846.6558331535 
736	 18158.627797151 
737	 18463.3047779651 
738	 18761.9106603983 
739	 19054.2251727246 
740	 19343.8340719344 
741	 19625.9194551008 
742	 19896.112177546 
743	 20163.0310728982 
744	 20414.6107694911 
745	 20648.3596347566 
746	 20871.1869449539 
747	 21106.4888040689 
748	 21338.9312276514 
749	 21561.4417146318 
750	 21790.8036828528 
751	 22012.4891329069 
752	 22227.271898398 
753	 22438.9759224108 
754	 22643.6909645575 
755	 22844.4540957193 
756	 23045.637834095 
757	 23250.6384323319 
758	 23445.6718784976 
759	 23629.4986961489 
760	 23806.5603465485 
761	 23987.0478621911 
762	 24169.1872096166 
763	 24351.9743513145 
764	 24532.4558967116 
765	 24701.5710101941 
766	 24863.9047939132 
767	 25021.6341453041 
768	 25175.1599274451 
769	 25326.230757539 
770	 25470.5659259913 
771	 25613.1954865602 
772	 25774.2935838067 
773	 25928.8061210569 
774	 26064.8923128766 
775	 26179.0220809216 
776	 26280.4388756777 
777	 26371.0170608153 
778	 26451.3002038894 
779	 26522.9025066492 
780	 26603.0881582593 
781	 26677.1157756628 
782	 26738.5021056171 
783	 26795.7630223748 
784	 26851.0644686266 
785	 26902.9277900145 
786	 26948.722939691 
787	 26985.9534109129 
788	 27016.8580125487 
789	 27040.7150387127 
790	 27056.9196095025 
791	 27073.6040454892 
792	 27084.6369081324 
793	 27089.7479303809 
794	 27094.9719841931 
795	 27093.1680480969 
796	 27087.1794100996 
797	 27077.6301325994 
798	 27056.2964840681 
799	 27034.8027493088 
800	 27008.7785941989 
801	 26970.8335987617 
802	 26926.1811134709 
803	 26869.790906934 
804	 26808.1508929531 
805	 26754.0369485336 
806	 26698.2264073981 
807	 26638.467108474 
808	 26575.7684947758 
809	 26514.4253677643 
810	 26441.0384437408 
811	 26361.5223831506 
812	 26283.5170342625 
813	 26206.3614196489 
814	 26118.2777300193 
815	 26019.0378576919 
816	 25913.4759384904 
817	 25800.1642915819 
818	 25684.9646383528 
819	 25569.3569114289 
820	 25450.9081942882 
821	 25334.8046674845 
822	 25213.4344339363 
823	 25083.3945430365 
824	 24951.2834310671 
825	 24816.4854383108 
826	 24680.4797186698 
827	 24543.4626505431 
828	 24400.0852556449 
829	 24258.1276504651 
830	 24116.6289441274 
831	 23971.1622783875 
832	 23825.1247183891 
833	 23675.4704581637 
834	 23522.1037992778 
835	 23368.0272490864 
836	 23214.4734226139 
837	 23065.0418193578 
838	 22920.6444224072 
839	 22777.6232226116 
840	 22637.3153500392 
841	 22495.7657329021 
842	 22350.7646192591 
843	 22208.3006962246 
844	 22070.1985231432 
845	 21933.9784801464 
846	 21796.0798484869 
847	 21658.2747454954 
848	 21526.4700658809 
849	 21397.8901785922 
850	 21264.4329892851 
851	 21136.6652237143 
852	 21007.6791524682 
853	 20876.0739869611 
854	 20749.9573182205 
855	 20620.237291257 
856	 20486.7972038594 
857	 20353.4710264155 
858	 20228.0146584695 
859	 20105.6034124792 
860	 19986.2469336848 
861	 19869.6874519426 
862	 19751.0976600051 
863	 19619.3249200485 
864	 19481.5200251634 
865	 19351.2906124047 
866	 19215.6767182233 
867	 19081.0791757725 
868	 18948.0490117196 
869	 18811.5698052335 
870	 18675.7483661584 
871	 18538.0721336908 
872	 18398.5618248659 
873	 18261.5035989875 
874	 18120.9701869578 
875	 17979.9482508989 
876	 17840.3747553356 
877	 17697.8626235684 
878	 17554.6672135345 
879	 17413.8878051695 
880	 17275.5205527766 
881	 17128.8427403328 
882	 16981.53002941 
883	 16838.1294668652 
884	 16698.7789308881 
885	 16551.1483462314 
886	 16404.363214568 
887	 16259.0007441218 
888	 16110.2196222752 
889	 15964.4767652989 
890	 15818.4796583821 
891	 15671.6967491783 
892	 15526.7622775529 
893	 15378.2504710843 
894	 15230.6413090736 
895	 15086.1718101971 
896	 14941.7605723884 
897	 14796.191254009 
898	 14651.5688459295 
899	 14508.5018978353 
900	 14362.8539005179 
901	 14224.0722383666 
902	 14084.7157875723 
903	 13938.275686644 
904	 13794.1581741538 
905	 13656.1980146237 
906	 13521.1992093978 
907	 13384.6004376766 
908	 13249.2778557814 
909	 13111.0915614878 
910	 12973.7497332667 
911	 12842.7266671765 
912	 12711.3915981519 
913	 12578.4914666199 
914	 12445.9661633617 
915	 12316.7106766402 
916	 12185.5416480602 
917	 12058.1540278976 
918	 11934.246362055 
919	 11807.9794017309 
920	 11679.6385154492 
921	 11553.7991038773 
922	 11430.4069432864 
923	 11304.3145305781 
924	 11180.1215195227 
925	 11056.2860356769 
926	 10932.0466954598 
927	 10808.9410470931 
928	 10687.1736981666 
929	 10564.1814436033 
930	 10439.4267491982 
931	 10316.4445745671 
932	 10195.6110709289 
933	 10074.8831791935 
934	 9952.9338351321 
935	 9830.95594929806 
936	 9715.24791429527 
937	 9600.50165906837 
938	 9482.77776412 
939	 9369.53487326402 
940	 9253.64918967734 
941	 9138.43006761611 
942	 9027.16199068692 
943	 8914.48966740086 
944	 8797.15124668793 
945	 8679.44009668293 
946	 8566.02880943367 
947	 8453.62628287792 
948	 8341.49690924646 
949	 8226.41668901267 
950	 8107.9661543621 
951	 7997.88665921351 
952	 7886.87200731582 
953	 7775.77968479442 
954	 7668.14089726366 
955	 7560.09335747902 
956	 7450.63907494146 
957	 7341.72098154752 
958	 7235.63168236735 
959	 7130.21650286268 
960	 7025.58516908471 
961	 6922.51620805823 
962	 6821.48272705974 
963	 6720.44043050723 
964	 6620.15529844044 
965	 6520.98404202421 
966	 6422.88856964202 
967	 6325.56648214184 
968	 6226.38014900625 
969	 6128.24455955408 
970	 6035.29343487531 
971	 5944.24025822487 
972	 5851.94956105221 
973	 5757.72262874041 
974	 5663.6297469701 
975	 5576.94809649756 
976	 5488.07307917334 
977	 5398.07403286586 
978	 5311.92280465878 
979	 5225.60001504988 
980	 5139.48123803249 
981	 5054.3694903728 
982	 4971.21683095407 
983	 4891.07244573481 
984	 4809.43141971435 
985	 4727.90215758561 
986	 4649.28237975716 
987	 4569.49116518702 
988	 4491.80787573342 
989	 4415.66333471231 
990	 4339.72192079176 
991	 4265.98162988338 
992	 4192.21953674608 
993	 4118.72127833919 
994	 4046.34288170381 
995	 3974.66388340981 
996	 3902.31286454907 
997	 3831.76924688273 
998	 3764.7903722833 
999	 3698.04361220528 
1000	 3631.26849695265 
1001	 7890.17780245606 
1002	 7931.1533915716 
1003	 7973.81811461978 
1004	 8016.33300872523 
1005	 8061.04455621154 
1006	 8109.41074996774 
1007	 8162.69716670658 
1008	 8214.26916245857 
1009	 8271.3864618458 
1010	 8334.35399741335 
1011	 8391.1274909276 
1012	 8456.53539295345 
1013	 8531.45007632516 
1014	 8605.37078306109 
1015	 8680.29327616464 
1016	 8759.28547302808 
1017	 8843.0690632111 
1018	 8921.10192506224 
1019	 9006.83251696268 
1020	 9100.6183479169 
1021	 9194.53544117662 
1022	 9289.56948745872 
1023	 9381.75772655051 
1024	 9471.58780251645 
1025	 9558.68448650219 
1026	 9643.83632417154 
1027	 9724.92684351894 
1028	 9804.2555608515 
1029	 9878.67457337852 
1030	 9944.88836450538 
1031	 10004.8960934941 
1032	 10060.9468091939 
1033	 10114.7068046298 
1034	 10167.9986028529 
1035	 10218.7211087375 
1036	 10260.4536013942 
1037	 10298.3622730917 
1038	 10336.2416416209 
1039	 10363.1145602214 
1040	 10390.0059736078 
1041	 10416.139600937 
1042	 10441.8927244442 
1043	 10454.5682943701 
1044	 10469.7563044767 
1045	 10482.975813597 
1046	 10484.515679266 
1047	 10488.6795878746 
1048	 10496.1445914905 
1049	 10503.4647364096 
1050	 10506.5814851151 
1051	 10508.3088514455 
1052	 10515.7990578401 
1053	 10522.3929866527 
1054	 10527.7524118815 
1055	 10538.1398621509 
1056	 10551.0520819285 
1057	 10557.6409538047 
1058	 10574.9622978224 
1059	 10599.6271181324 
1060	 10627.4431449555 
1061	 10664.7896687239 
1062	 10699.1131378884 
1063	 10735.5312502473 
1064	 10782.2033047882 
1065	 10826.7597953417 
1066	 10873.3951506853 
1067	 10930.3455460976 
1068	 10993.6117359861 
1069	 11060.7776758279 
1070	 11141.6392287553 
1071	 11232.1542907393 
1072	 11324.6071714145 
1073	 11416.76236115 
1074	 11517.7029212784 
1075	 11633.6749894575 
1076	 11752.8950678226 
1077	 11887.076583998 
1078	 12026.1644024616 
1079	 12156.2776811092 
1080	 12297.5823716687 
1081	 12446.1234038899 
1082	 12598.488688394 
1083	 12753.845838514 
1084	 12921.0703049853 
1085	 13090.0993474749 
1086	 13258.3001240025 
1087	 13428.721215766 
1088	 13593.1244237521 
1089	 13756.2374310432 
1090	 13922.9146436185 
1091	 14087.3022444919 
1092	 14252.5031439183 
1093	 14412.2526228048 
1094	 14569.2781102933 
1095	 14721.4643292932 
1096	 14868.6736467819 
1097	 15011.749733261 
1098	 15156.8231046117 
1099	 15300.0789761748 
1100	 15436.6642570926 
1101	 15574.7767756922 
1102	 15708.2805826021 
1103	 15835.5992232877 
1104	 15962.4875692019 
1105	 16082.0966403318 
1106	 16196.3202417658 
1107	 16301.7279619726 
1108	 16408.853118687 
1109	 16510.6800514541 
1110	 16614.448453735 
1111	 16719.2247879569 
1112	 16822.0524763341 
1113	 16922.5088630378 
1114	 17021.2979999233 
1115	 17113.7156774683 
1116	 17199.4787241729 
1117	 17281.9415098529 
1118	 17358.2701188738 
1119	 17438.6832697084 
1120	 17518.230241365 
1121	 17601.0755629285 
1122	 17687.6803923542 
1123	 17771.7854828702 
1124	 17856.49844202 
1125	 17939.1762161201 
1126	 18021.0529339876 
1127	 18101.7907593182 
1128	 18177.139381436 
1129	 18253.094802739 
1130	 18325.3562915399 
1131	 18396.8308577608 
1132	 18464.6585159479 
1133	 18528.964710927 
1134	 18595.2468026417 
1135	 18657.5801813402 
1136	 18722.6413451336 
1137	 18795.2670550001 
1138	 18859.2623052993 
1139	 18920.9337191335 
1140	 18977.6052430922 
1141	 19028.6489902329 
1142	 19075.9908711624 
1143	 19122.0401101248 
1144	 19169.1376546308 
1145	 19217.1460650817 
1146	 19261.3761918725 
1147	 19304.0494380739 
1148	 19345.0138226125 
1149	 19385.9908813278 
1150	 19421.8276227601 
1151	 19463.4202088791 
1152	 19506.6832313761 
1153	 19551.8034705702 
1154	 19599.5076635865 
1155	 19647.9142868755 
1156	 19700.200546003 
1157	 19752.6731933797 
1158	 19789.6124959297 
1159	 19832.8675738784 
1160	 19880.243150236 
1161	 19917.2132856259 
1162	 19956.4273512972 
1163	 20002.3360371633 
1164	 20040.6294301277 
1165	 20069.0407126983 
1166	 20102.3756121124 
1167	 20138.4540174825 
1168	 20172.9892955382 
1169	 20205.8819967996 
1170	 20238.6894388662 
1171	 20275.7446886069 
1172	 20304.6352258758 
1173	 20325.9901010154 
1174	 20351.2483619564 
1175	 20371.3302703553 
1176	 20381.0552193784 
1177	 20401.9378154621 
1178	 20427.3276210831 
1179	 20451.3423186496 
1180	 20483.4251052868 
1181	 20505.118776186 
1182	 20519.221709244 
1183	 20536.2430044307 
1184	 20550.1770474874 
1185	 20564.2342216796 
1186	 20579.0616815915 
1187	 20595.1501407705 
1188	 20611.6682524135 
1189	 20621.399810698 
1190	 20643.1515098958 
1191	 20671.7890480542 
1192	 20698.5590435322 
1193	 20732.8515693995 
1194	 20759.3794574861 
1195	 20781.1190389859 
1196	 20804.9712794814 
1197	 20822.9370318175 
1198	 20849.9339592784 
1199	 20884.8886649138 
1200	 20915.7070877629 
1201	 20950.4585243131 
1202	 20982.8536062143 
1203	 21015.5079844868 
1204	 21040.7890197568 
1205	 21064.4080868841 
1206	 21091.3549598389 
1207	 21122.1826260346 
1208	 21150.7144562409 
1209	 21187.3137642558 
1210	 21234.6368546732 
1211	 21275.1221564907 
1212	 21317.6451406255 
1213	 21356.1877953397 
1214	 21390.5477006215 
1215	 21427.5476928049 
1216	 21465.6248680204 
1217	 21500.6416180087 
1218	 21533.6281061557 
1219	 21568.3329377489 
1220	 21600.6726102012 
1221	 21634.1945794541 
1222	 21668.9147080665 
1223	 21706.4203159868 
1224	 21743.6332155114 
1225	 21783.279064002 
1226	 21816.4612619313 
1227	 21851.3787440967 
1228	 21878.3452235673 
1229	 21897.3834432901 
1230	 21916.1675424442 
1231	 21930.9063705875 
1232	 21945.1007854441 
1233	 21957.1957499553 
1234	 21967.5816248204 
1235	 21976.5219518621 
1236	 21983.7939508472 
1237	 21989.2870527937 
1238	 21992.6814078495 
1239	 21994.5867041409 
1240	 21996.8657889459 
1241	 21992.1191106529 
1242	 21980.4944348325 
1243	 21974.0436891006 
1244	 21966.8784812266 
1245	 21956.5601072006 
1246	 21946.913413251 
1247	 21936.8155256659 
1248	 21923.3048194552 
1249	 21908.7698684659 
1250	 21895.2143726081 
1251	 21881.1506459755 
1252	 21863.1309581211 
1253	 21846.1654501974 
1254	 21829.8071685698 
1255	 21815.2268699374 
1256	 21800.8954906429 
1257	 21784.7465253219 
1258	 21773.0576516581 
1259	 21767.6841076911 
1260	 21754.4912099095 
1261	 21741.3125624842 
1262	 21724.1062871513 
1263	 21701.0082069609 
1264	 21678.821184615 
1265	 21659.1186218303 
1266	 21631.6337604751 
1267	 21600.5028705876 
1268	 21565.5898869989 
1269	 21526.7749125716 
1270	 21481.8619834869 
1271	 21432.0669334268 
1272	 21379.6031043848 
1273	 21319.9201938032 
1274	 21250.9826409768 
1275	 21184.8177669751 
1276	 21112.5657945611 
1277	 21047.0136512998 
1278	 20985.5612718776 
1279	 20918.8496655557 
1280	 20853.2470358718 
1281	 20784.8484590939 
1282	 20711.4644314319 
1283	 20638.6038758948 
1284	 20561.1053780387 
1285	 20491.4009124352 
1286	 20419.0125349934 
1287	 20356.60807382 
1288	 20306.3386092808 
1289	 20255.387341156 
1290	 20207.8876076652 
1291	 20163.3193065956 
1292	 20122.8339366376 
1293	 20083.173697887 
1294	 20051.4015039715 
1295	 20024.8617354 
1296	 20004.3084341228 
1297	 19989.7045602289 
1298	 19978.8783397186 
1299	 19974.4466796845 
1300	 19972.9506267257 
1301	 19974.3972871679 
1302	 19981.3441869296 
1303	 19995.3194039196 
1304	 20009.6881242582 
1305	 20029.7774844511 
1306	 20048.462585952 
1307	 20067.9635339746 
1308	 20086.3996784661 
1309	 20107.3451919729 
1310	 20133.1142533422 
1311	 20160.2249704315 
1312	 20191.5895059259 
1313	 20221.9168060445 
1314	 20255.8171523344 
1315	 20284.3124674569 
1316	 20311.3996492097 
1317	 20337.8662179105 
1318	 20360.9040885212 
1319	 20384.6833618298 
1320	 20408.3877595605 
1321	 20432.5927103247 
1322	 20457.6090658629 
1323	 20479.9696413843 
1324	 20503.6639933127 
1325	 20523.7046674078 
1326	 20540.2016483298 
1327	 20554.6783141534 
1328	 20567.5493402216 
1329	 20580.0583014766 
1330	 20591.1524027402 
1331	 20601.2748884007 
1332	 20609.2518946221 
1333	 20616.7817420823 
1334	 20620.2949467589 
1335	 20619.2839039855 
1336	 20620.042763752 
1337	 20619.3784209519 
1338	 20617.3477926483 
1339	 20620.0938159494 
1340	 20612.7796961947 
1341	 20602.0925041999 
1342	 20583.8945757099 
1343	 20558.6474144769 
1344	 20527.5667039971 
1345	 20491.7574315956 
1346	 20448.1041497875 
1347	 20396.8849372082 
1348	 20339.8108707092 
1349	 20278.3683929851 
1350	 20207.9660434664 
1351	 20125.3821545411 
1352	 20032.664467719 
1353	 19934.8602075716 
1354	 19816.9444824145 
1355	 19715.8273529968 
1356	 19619.8131710699 
1357	 19519.3110630715 
1358	 19420.6439978294 
1359	 19323.3155129589 
1360	 19199.6277640418 
1361	 19123.6826023644 
1362	 19061.3910208915 
1363	 19028.7315142934 
1364	 19050.5518542668 
1365	 19056.8279348672 
1366	 19079.9284206185 
1367	 19096.1337504639 
1368	 19104.7959837126 
1369	 19115.616066952 
1370	 19141.5750027044 
1371	 19175.515540595 
1372	 19195.8468271412 
1373	 19240.4359265328 
1374	 19218.2508402086 
1375	 19183.126193132 
1376	 19077.8546545531 
1377	 18909.3617008367 
1378	 18731.048029388 
1379	 18477.1662006971 
1380	 18275.2266299941 
1381	 18046.6556108706 
1382	 17883.3992107037 
1383	 17762.3854903307 
1384	 17653.9951501795 
1385	 17616.9758225519 
1386	 17530.3580221682 
1387	 17452.1301741267 
1388	 17336.350539536 
1389	 17196.9543681934 
1390	 17022.6001229977 
1391	 16825.28967597 
1392	 16608.3062522446 
1393	 16374.3443016821 
1394	 16143.0282769787 
1395	 15934.0543673209 
1396	 15732.8091474959 
1397	 15542.618207313 
1398	 15371.8015088331 
1399	 15198.0571348596 
1400	 15025.9289997895 
1401	 14863.1059610963 
1402	 14708.8643383078 
1403	 14557.1246019699 
1404	 14408.6341195097 
1405	 14270.4922730604 
1406	 14135.811784343 
1407	 14014.1284223933 
1408	 13903.4259087556 
1409	 13801.0218603546 
1410	 13713.0009514644 
1411	 13624.8145502753 
1412	 13544.7819281253 
1413	 13466.3361445513 
1414	 13389.8425636001 
1415	 13315.8644336486 
1416	 13245.3176463544 
1417	 13182.3604263004 
1418	 13122.8810626816 
1419	 13064.2806137559 
1420	 13009.536066945 
1421	 12957.9280237893 
1422	 12908.9842752797 
1423	 12864.7417295153 
1424	 12819.5668965879 
1425	 12772.8039685617 
1426	 12735.8736257883 
1427	 12702.3481241547 
1428	 12671.7871156808 
1429	 12650.8476526468 
1430	 12627.4498000107 
1431	 12602.594503221 
1432	 12583.9522164204 
1433	 12565.4122412567 
1434	 12555.0562580661 
1435	 12554.5822344371 
1436	 12550.4329409518 
1437	 12551.5087987999 
1438	 12551.7208223958 
1439	 12551.1708624315 
1440	 12549.2047119537 
1441	 12544.8730181154 
1442	 12545.1143785774 
1443	 12550.5156651065 
1444	 12555.4493939067 
1445	 12561.9208119454 
1446	 12574.2491376416 
1447	 12584.5082837597 
1448	 12592.787296632 
1449	 12601.5005206814 
1450	 12611.7279312348 
1451	 12623.5264614367 
1452	 12635.6762981305 
1453	 12647.0128440986 
1454	 12658.8984265839 
1455	 12673.4887694167 
1456	 12687.8507812942 
1457	 12700.8407953737 
1458	 12720.2900944509 
1459	 12732.3391267432 
1460	 12735.8498895752 
1461	 12744.6111311692 
1462	 12752.5277406486 
1463	 12762.5870829156 
1464	 12775.1207538982 
1465	 12787.6736861896 
1466	 12800.0289012906 
1467	 12814.4756293432 
1468	 12829.8940857162 
1469	 12847.4461878494 
1470	 12867.2788796439 
1471	 12888.2048533927 
1472	 12909.471591251 
1473	 12931.3173304384 
1474	 12953.3467544034 
1475	 12973.7646036552 
1476	 13000.0340933227 
1477	 13030.2708783728 
1478	 13057.5374444511 
1479	 13088.3162748139 
1480	 13115.6947988545 
1481	 13139.0803716515 
1482	 13164.8104045986 
1483	 13191.2465097229 
1484	 13217.3777816944 
1485	 13243.009145847 
1486	 13269.4981369154 
1487	 13296.0137851358 
1488	 13323.9788347027 
1489	 13355.8886220169 
1490	 13382.2168471815 
1491	 13406.9074090124 
1492	 13430.3437639584 
1493	 13445.842003842 
1494	 13468.6708300971 
1495	 13497.1177408779 
1496	 13522.9372197852 
1497	 13553.1169495274 
1498	 13578.6436633847 
1499	 13598.8915767237 
1500	 13620.1038441761 
1501	 13642.0344726954 
1502	 13658.7102730897 
1503	 13677.2494986731 
1504	 13701.6333906802 
1505	 13728.5708640008 
1506	 13754.8262185589 
1507	 13780.0415450155 
1508	 13806.6978151734 
1509	 13831.6256860703 
1510	 13855.103431618 
1511	 13876.6247976818 
1512	 13897.7392616228 
1513	 13916.524059896 
1514	 13930.5147002152 
1515	 13950.1005355745 
1516	 13970.9390323357 
1517	 13992.3797055102 
1518	 14018.4302133477 
1519	 14038.2988407766 
1520	 14055.5596873903 
1521	 14073.1324999497 
1522	 14087.4625366708 
1523	 14103.6190730811 
1524	 14120.3569259753 
1525	 14137.2150043685 
1526	 14155.3600544096 
1527	 14171.1730693177 
1528	 14187.1332043845 
1529	 14201.0326244898 
1530	 14211.4872261406 
1531	 14223.0593823358 
1532	 14235.08450126 
1533	 14245.8354946211 
1534	 14255.7318498228 
1535	 14265.4165868998 
1536	 14273.8384830619 
1537	 14282.5924663652 
1538	 14292.4385398675 
1539	 14300.7698416818 
1540	 14310.0818518779 
1541	 14314.3430413951 
1542	 14321.8908869561 
1543	 14329.0052573629 
1544	 14333.3275251164 
1545	 14336.5662004646 
1546	 14341.2937596657 
1547	 14343.7695170248 
1548	 14347.9614160253 
1549	 14354.8150920377 
1550	 14360.5510721612 
1551	 14363.6374117153 
1552	 14371.112331699 
1553	 14381.8474237156 
1554	 14390.8937944029 
1555	 14403.6555900595 
1556	 14409.1891561724 
1557	 14410.1391868256 
1558	 14413.4037819632 
1559	 14412.1112456716 
1560	 14415.8316286389 
1561	 14424.8231728059 
1562	 14429.3613909702 
1563	 14434.0605443659 
1564	 14436.3352540837 
1565	 14435.6131094622 
1566	 14435.5405477236 
1567	 14436.7354886067 
1568	 14432.9854020534 
1569	 14423.1022527488 
1570	 14419.61653856 
1571	 14414.306764117 
1572	 14413.063167942 
1573	 14421.7137550599 
1574	 14422.830807421 
1575	 14421.5516242253 
1576	 14419.0598218397 
1577	 14412.9210418975 
1578	 14407.2812351316 
1579	 14402.4053192979 
1580	 14394.6615647016 
1581	 14381.8472775864 
1582	 14373.7995649005 
1583	 14365.7943944196 
1584	 14359.390487068 
1585	 14362.1387333296 
1586	 14356.0551904312 
1587	 14342.165940477 
1588	 14332.559515976 
1589	 14315.7088660372 
1590	 14307.4167511266 
1591	 14310.3112991349 
1592	 14309.0708100003 
1593	 14312.942060863 
1594	 14311.4302487824 
1595	 14303.0766981304 
1596	 14296.3507128493 
1597	 14290.2917348926 
1598	 14282.4320577676 
1599	 14276.8258467518 
1600	 14274.6462595977 
1601	 14267.2111488342 
1602	 14257.8490331837 
1603	 14248.2833373271 
1604	 14236.2656463434 
1605	 14225.4053317895 
1606	 14216.5078733258 
1607	 14202.1006873014 
1608	 14184.8431502741 
1609	 14168.4134797661 
1610	 14148.784696901 
1611	 14130.585253124 
1612	 14113.0241812509 
1613	 14096.2898778844 
1614	 14079.9984319599 
1615	 14061.5104507609 
1616	 14042.3280053098 
1617	 14025.8020571825 
1618	 14008.5079100291 
1619	 13991.5862748116 
1620	 13981.1394168068 
1621	 13960.2385402914 
1622	 13933.4301727988 
1623	 13906.1024956688 
1624	 13872.180351879 
1625	 13843.5126611415 
1626	 13814.7583972378 
1627	 13788.8521244024 
1628	 13768.0234945738 
1629	 13741.5410643199 
1630	 13714.3539535041 
1631	 13685.7932534279 
1632	 13652.1142958624 
1633	 13622.436099057 
1634	 13596.1461040037 
1635	 13566.0242060362 
1636	 13535.0524917272 
1637	 13504.188675493 
1638	 13471.5275527172 
1639	 13437.86332458 
1640	 13406.4885913374 
1641	 13370.0768297895 
1642	 13327.2731729611 
1643	 13289.6696792886 
1644	 13249.7046211971 
1645	 13214.4092264682 
1646	 13185.8762931478 
1647	 13153.2244037377 
1648	 13123.0843837081 
1649	 13087.9211433967 
1650	 13047.2140535915 
1651	 13009.1864057361 
1652	 12973.1814086732 
1653	 12930.844787773 
1654	 12885.2222706723 
1655	 12840.4774517021 
1656	 12790.8965334124 
1657	 12742.64406011 
1658	 12698.4488874104 
1659	 12650.3438762603 
1660	 12598.1041192226 
1661	 12546.4695473907 
1662	 12494.6622241327 
1663	 12441.2541161479 
1664	 12387.3511689262 
1665	 12331.3975764496 
1666	 12270.3452474427 
1667	 12215.6002848427 
1668	 12159.3710710326 
1669	 12109.9733225578 
1670	 12067.5407065533 
1671	 12025.1925711888 
1672	 11988.2801257449 
1673	 11949.1331066658 
1674	 11912.3351274099 
1675	 11871.9718141851 
1676	 11828.4405261489 
1677	 11786.1890054133 
1678	 11743.292368943 
1679	 11698.9285442461 
1680	 11656.3712519321 
1681	 11609.9226819599 
1682	 11557.7690815178 
1683	 11510.2124558026 
1684	 11461.5744013819 
1685	 11415.9056139829 
1686	 11376.3691345354 
1687	 11331.2706756865 
1688	 11282.5702230925 
1689	 11236.8698135062 
1690	 11190.5173129231 
1691	 11143.8408004104 
1692	 11102.1924001841 
1693	 11056.0345354868 
1694	 11005.071819883 
1695	 10956.6338197088 
1696	 10903.4608553218 
1697	 10858.2373748538 
1698	 10819.0950602149 
1699	 10777.370978967 
1700	 10740.5683218147 
1701	 10700.8097626397 
1702	 10657.1294898463 
1703	 10617.070097936 
1704	 10578.1641795325 
1705	 10539.7045676391 
1706	 10502.3909178352 
1707	 10463.2715655753 
1708	 10424.4765657014 
1709	 10387.6749503286 
1710	 10353.6057820064 
1711	 10313.9947115793 
1712	 10271.765005787 
1713	 10229.3220652148 
1714	 10182.7235586658 
1715	 10137.8896199811 
1716	 10096.3065096675 
1717	 10051.8681651985 
1718	 10004.9085111701 
1719	 9958.03199228973 
1720	 9906.96775306765 
1721	 9864.38331301088 
1722	 9825.16913119965 
1723	 9785.18412783753 
1724	 9749.73343673148 
1725	 9715.05128616893 
1726	 9682.49839806707 
1727	 9645.09655993607 
1728	 9611.78907990073 
1729	 9567.96174838481 
1730	 9510.24827993431 
1731	 9463.01249309482 
1732	 9413.92269106026 
1733	 9372.9887913241 
1734	 9341.14514420144 
1735	 9305.24974096823 
1736	 9273.86665854602 
1737	 9235.47359904666 
1738	 9190.77178207464 
1739	 9153.18943775237 
1740	 9115.20536485223 
1741	 9080.35305846046 
1742	 9052.43488632308 
1743	 9017.62585540346 
1744	 8980.14848290882 
1745	 8935.9405577147 
1746	 8894.60923104517 
1747	 8851.17681254296 
1748	 8812.87468611453 
1749	 8779.25705372109 
1750	 8740.67272405418 
1751	 8696.39202866551 
1752	 8653.82037897259 
1753	 8612.44189145455 
1754	 8569.829992472 
1755	 8532.83749993111 
1756	 8497.52643826199 
1757	 8457.93362169996 
1758	 8418.93046292438 
1759	 8380.92280264053 
1760	 8339.98326019573 
1761	 8294.56464243991 
1762	 8249.05508048703 
1763	 8204.06057216348 
1764	 8158.44489529579 
1765	 8114.7439963476 
1766	 8076.79643609716 
1767	 8039.53783546788 
1768	 7997.62118086494 
1769	 7958.58809647515 
1770	 7919.93629165198 
1771	 7874.66176702823 
1772	 7835.15167936461 
1773	 7802.68462174739 
1774	 7763.44990050361 
1775	 7730.60687125539 
1776	 7698.79098000182 
1777	 7657.92005343057 
1778	 7619.42750632957 
1779	 7575.65245460608 
1780	 7532.16678064109 
1781	 7494.88132083859 
1782	 7459.3639104316 
1783	 7433.59566756087 
1784	 7400.46465825226 
1785	 7363.36512056678 
1786	 7325.6727635163 
1787	 7282.90628834736 
1788	 7244.00454412665 
1789	 7208.67289139216 
1790	 7168.39503850635 
1791	 7128.10153208919 
1792	 7088.4226386738 
1793	 7043.24156344778 
1794	 7003.31877105513 
1795	 6971.38102266896 
1796	 6931.22587786099 
1797	 6887.39202728029 
1798	 6844.29229516327 
1799	 6792.93407612938 
1800	 6747.65510161411 
1801	 11932.0508651694 
1802	 12068.1034755078 
1803	 12193.6112366552 
1804	 12313.948728011 
1805	 12439.2074924752 
1806	 12562.671563364 
1807	 12671.1525181288 
1808	 12774.2241142029 
1809	 12874.0735832579 
1810	 12960.1609041237 
1811	 13031.3710370377 
1812	 13103.427021798 
1813	 13170.8049421007 
1814	 13226.3331184747 
1815	 13279.1083772696 
1816	 13339.9139462246 
1817	 13376.0242528008 
1818	 13405.66714169 
1819	 13455.3548982802 
1820	 13505.8985752232 
1821	 13563.9326509565 
1822	 13641.1990537321 
1823	 13721.6107432724 
1824	 13774.3394279676 
1825	 13824.4743273886 
1826	 13862.624895 
1827	 13903.2501409497 
1828	 13954.3428106137 
1829	 14022.7919118498 
1830	 14065.6429863304 
1831	 14113.3696941396 
1832	 14143.9142454153 
1833	 14118.9001020196 
1834	 14096.81697229 
1835	 14065.6907907748 
1836	 14049.5162578727 
1837	 14067.9370835747 
1838	 14113.0497750282 
1839	 14183.9692402421 
1840	 14308.6562040111 
1841	 14390.5694611089 
1842	 14492.0829308029 
1843	 14579.7687614096 
1844	 14578.2560261069 
1845	 14587.2551300766 
1846	 14597.5413140487 
1847	 14593.6792621261 
1848	 14627.6967244779 
1849	 14723.0286939002 
1850	 14755.1625507847 
1851	 14774.655567358 
1852	 14796.3167136084 
1853	 14781.0159489294 
1854	 14753.2674545621 
1855	 14722.166627704 
1856	 14681.661006764 
1857	 14624.8716694741 
1858	 14581.4631902954 
1859	 14556.723625885 
1860	 14574.8290493343 
1861	 14539.0814669652 
1862	 14523.2634211985 
1863	 14449.6059871078 
1864	 14283.7884866328 
1865	 14082.938784279 
1866	 13802.4398464372 
1867	 13511.4416069976 
1868	 13235.4736659045 
1869	 12960.5062461391 
1870	 12739.245953331 
1871	 12555.0663993243 
1872	 12402.3272137497 
1873	 12296.3359768856 
1874	 12224.5270461145 
1875	 12178.567739949 
1876	 12129.4201635275 
1877	 12060.8136174258 
1878	 11980.5791418314 
1879	 11859.2946234795 
1880	 11712.5340644572 
1881	 11545.7738944928 
1882	 11349.6414313773 
1883	 11133.0154823524 
1884	 10911.5579149664 
1885	 10692.5744042607 
1886	 10473.9362788298 
1887	 10261.6350719356 
1888	 10053.4008756677 
1889	 9846.5985823546 
1890	 9664.2839279122 
1891	 9491.30497529254 
1892	 9327.69393872295 
1893	 9188.879820817 
1894	 9052.05635827935 
1895	 8891.17343627841 
1896	 8732.61475649744 
1897	 8553.53853120158 
1898	 8376.61198693872 
1899	 8228.16421635546 
1900	 8094.75331495613 
1901	 7984.55861443132 
1902	 7885.89039066843 
1903	 7806.58718469532 
1904	 7732.96093870054 
1905	 7671.36198927178 
1906	 7634.39454686901 
1907	 7617.74683813737 
1908	 7607.6326647566 
1909	 7602.74574562332 
1910	 7578.81167061002 
1911	 7535.35122001321 
1912	 7497.40011536107 
1913	 7462.49397526561 
1914	 7423.69936506537 
1915	 7394.61987075673 
1916	 7374.98874402157 
1917	 7343.89531891378 
1918	 7319.86292752427 
1919	 7298.9623031124 
1920	 7277.07429934868 
1921	 7284.0615241127 
1922	 7296.50746750939 
1923	 7304.46856362201 
1924	 7313.94825192464 
1925	 7331.06272050316 
1926	 7332.87922388183 
1927	 7339.50471424135 
1928	 7356.22285730507 
1929	 7369.42202463043 
1930	 7390.38354081556 
1931	 7407.69138487452 
1932	 7416.03027794362 
1933	 7420.91439184863 
1934	 7422.12648264561 
1935	 7429.13355993992 
1936	 7435.13193734646 
1937	 7441.67157793074 
1938	 7460.18037187149 
1939	 7482.69888630409 
1940	 7497.54268950697 
1941	 7528.2250426094 
1942	 7555.55128141442 
1943	 7573.59807662892 
1944	 7596.99377365237 
1945	 7607.56226908881 
1946	 7622.52330595147 
1947	 7637.78360927539 
1948	 7658.04304621715 
1949	 7678.13632570551 
1950	 7702.57825246163 
1951	 7736.23105187541 
1952	 7752.30156545306 
1953	 7778.0737141567 
1954	 7811.85688031988 
1955	 7837.06419775619 
1956	 7862.24270104926 
1957	 7879.50512520202 
1958	 7892.64182443125 
1959	 7909.00837793549 
1960	 7921.32488546613 
1961	 7941.82885197093 
1962	 7971.27862021369 
1963	 7996.4508419793 
1964	 8023.50915813222 
1965	 8049.09703170623 
1966	 8068.78605149832 
1967	 8089.27365724744 
1968	 8102.58082549843 
1969	 8120.51032610838 
1970	 8143.59591113264 
1971	 8170.48987945022 
1972	 8195.6789183804 
1973	 8227.65018917894 
1974	 8254.62960829701 
1975	 8275.22287285204 
1976	 8289.99656871516 
1977	 8304.35151374429 
1978	 8322.61611417921 
1979	 8333.50854403217 
1980	 8342.50740680357 
1981	 8359.22048182606 
1982	 8374.70940343065 
1983	 8393.15762763245 
1984	 8420.86027567028 
1985	 8442.89263940709 
1986	 8461.20208723972 
1987	 8482.55085615027 
1988	 8506.74339158002 
1989	 8531.9235708593 
1990	 8559.6971017967 
1991	 8583.7004279871 
1992	 8597.18566317136 
1993	 8608.58421030563 
1994	 8628.406377443 
1995	 8656.93690464553 
1996	 8671.44590506036 
1997	 8686.40306264829 
1998	 8698.44587414968 
1999	 8700.39550710096 
2000	 8697.45949983003 
2001	 8708.89988764789 
2002	 8720.0287904752 
2003	 8729.62631395882 
2004	 8753.87328913417 
2005	 8779.66000002986 
2006	 8805.05706417093 
2007	 8824.00643493884 
2008	 8840.02737001525 
2009	 8850.51431638027 
2010	 8853.74036610673 
2011	 8859.74648254208 
2012	 8861.05733066984 
2013	 8869.21098955208 
2014	 8887.38766890149 
2015	 8897.94359171739 
2016	 8911.54221733688 
2017	 8933.79320714805 
2018	 8937.82592061651 
2019	 8933.48276618029 
2020	 8935.71548679678 
2021	 8936.70068624616 
2022	 8936.68331063227 
2023	 8939.55074678899 
2024	 8941.69294754256 
2025	 8942.3627769651 
2026	 8941.96529910357 
2027	 8942.7054537872 
2028	 8936.49313403738 
2029	 8922.95098566333 
2030	 8906.26164226051 
2031	 8897.05703720796 
2032	 8884.66529063604 
2033	 8874.6686387072 
2034	 8871.17657557888 
2035	 8865.32520798277 
2036	 8857.91709432148 
2037	 8851.07157283509 
2038	 8848.77357502325 
2039	 8840.13491336091 
2040	 8824.20398973699 
2041	 8810.62274438783 
2042	 8806.55384656417 
2043	 8797.36399559045 
2044	 8787.99643359125 
2045	 8780.99287016912 
2046	 8765.57112621542 
2047	 8747.43147518059 
2048	 8733.678858288 
2049	 8724.78197294532 
2050	 8710.30887588517 
2051	 8692.68992588159 
2052	 8678.26473488659 
2053	 8663.1192446623 
2054	 8648.01581466037 
2055	 8631.09753110186 
2056	 8617.70533653709 
2057	 8610.75366180644 
2058	 8602.76515232276 
2059	 8599.15415791165 
2060	 8598.55861971483 
2061	 8590.89445580068 
2062	 8576.15100293525 
2063	 8564.36636123785 
2064	 8546.61558997716 
2065	 8539.22051679632 
2066	 8540.82938831893 
2067	 8532.63504627737 
2068	 8524.19923032308 
2069	 8520.31298728134 
2070	 8499.56660776163 
2071	 8487.14465360945 
2072	 8481.61986614162 
2073	 8470.09438989656 
2074	 8459.9997362843 
2075	 8445.72090169369 
2076	 8437.03277352243 
2077	 8426.48779720677 
2078	 8423.59155279821 
2079	 8435.10584774573 
2080	 8429.81264530462 
2081	 8415.05573817865 
2082	 8408.86495855774 
2083	 8397.0795498743 
2084	 8391.7047100725 
2085	 8391.6647520041 
2086	 8396.8065104367 
2087	 8402.81240814971 
2088	 8394.19151525329 
2089	 8395.01286868208 
2090	 8397.85876783318 
2091	 8381.34328171115 
2092	 8375.37943491087 
2093	 8374.29301296745 
2094	 8379.0850855831 
2095	 8372.32686646345 
2096	 8370.32499844022 
2097	 8364.84819998911 
2098	 8340.73050575788 
2099	 8329.12182931043 
2100	 8333.01218582837 
2101	 8323.67859787436 
2102	 8298.22803529465 
2103	 8290.56435551503 
2104	 8281.92871546359 
2105	 8269.73513337325 
2106	 8274.33624807202 
2107	 8286.40050284303 
2108	 8289.35771976738 
2109	 8289.95650169106 
2110	 8289.76047872927 
2111	 8287.41327441917 
2112	 8280.61791040595 
2113	 8266.49941342273 
2114	 8262.69734104945 
2115	 8258.80128757236 
2116	 8257.81012436251 
2117	 8268.34098819718 
2118	 8271.13968397484 
2119	 8270.22701865748 
2120	 8264.60477410846 
2121	 8253.40775967807 
2122	 8248.67977591247 
2123	 8240.39892825256 
2124	 8241.41650139977 
2125	 8243.30508025979 
2126	 8253.99627779078 
2127	 8253.85912248656 
2128	 8248.51069933748 
2129	 8245.78052899464 
2130	 8239.7578120136 
2131	 8233.5088852664 
2132	 8233.60937469844 
2133	 8226.81118927664 
2134	 8212.0322760373 
2135	 8199.6519357311 
2136	 8191.14461076133 
2137	 8186.64721766494 
2138	 8180.56517246918 
2139	 8170.8522185853 
2140	 8158.58080698729 
2141	 8141.80465128484 
2142	 8135.90314826121 
2143	 8135.60600902032 
2144	 8131.18146019112 
2145	 8131.21478746712 
2146	 8127.886307611 
2147	 8119.2266628383 
2148	 8110.73390334049 
2149	 8098.43294175487 
2150	 8091.94495523631 
2151	 8087.00753229718 
2152	 8085.47198831001 
2153	 8083.78896065247 
2154	 8075.79998572787 
2155	 8055.24268664474 
2156	 8036.68022675889 
2157	 8028.61548433333 
2158	 8020.01402537666 
2159	 8006.78071487845 
2160	 8000.49789221478 
2161	 7992.39099451176 
2162	 7978.65234145442 
2163	 7970.07425123487 
2164	 7964.33791695007 
2165	 7960.40106090557 
2166	 7962.21834925578 
2167	 7954.06611375732 
2168	 7944.55260253226 
2169	 7938.58493491489 
2170	 7925.12735761636 
2171	 7915.15164090862 
2172	 7917.64795300556 
2173	 7905.25058084537 
2174	 7879.92798104596 
2175	 7859.93251169517 
2176	 7837.78782102771 
2177	 7823.07553732575 
2178	 7824.36341634328 
2179	 7819.90386534951 
2180	 7806.12854912249 
2181	 7796.68469177193 
2182	 7780.89264699405 
2183	 7750.65263175589 
2184	 7737.3989928862 
2185	 7731.15671433022 
2186	 7720.38725046385 
2187	 7718.88258859583 
2188	 7708.4827559881 
2189	 7692.78927058294 
2190	 7674.91850957815 
2191	 7650.9348861257 
2192	 7630.86119155742 
2193	 7613.5257609741 
2194	 7600.95135670905 
2195	 7599.3905679678 
2196	 7583.67559742978 
2197	 7550.58626544397 
2198	 7515.80967568581 
2199	 7475.57860290265 
2200	 7436.46071304706 
2201	 7405.00257143475 
2202	 7380.43542957008 
2203	 7355.69044991435 
2204	 7328.60571768241 
2205	 7304.27407026178 
2206	 7282.03207867307 
2207	 7261.03564065739 
2208	 7242.47658162689 
2209	 7223.91679417801 
2210	 7209.96831039869 
2211	 7188.13453227677 
2212	 7158.71931862412 
2213	 7134.29493567176 
2214	 7110.11805314493 
2215	 7083.83211517524 
2216	 7061.28703875172 
2217	 7047.17834627535 
2218	 7022.77007053672 
2219	 6999.95334179768 
2220	 6971.66306900963 
2221	 6930.50841188419 
2222	 6892.63179553767 
2223	 6856.85451774587 
2224	 6831.03645697168 
2225	 6812.31193034021 
2226	 6785.54182496401 
2227	 6757.80013641858 
2228	 6726.14945121301 
2229	 6686.03192880103 
2230	 6650.1030790961 
2231	 6612.92955837002 
2232	 6575.39977289987 
2233	 6541.12501852838 
2234	 6502.14792806137 
2235	 6462.0270718044 
2236	 6422.86271188751 
2237	 6379.00444048185 
2238	 6331.26970105865 
2239	 6282.12976940228 
2240	 6235.23247312112 
2241	 6177.15211122116 
2242	 6129.97766740992 
2243	 6090.93365848806 
2244	 6051.49648300537 
2245	 6013.23172501253 
2246	 5980.71496066573 
2247	 5943.27956753119 
2248	 5894.80648206721 
2249	 5850.92042783874 
2250	 5804.17280241544 
2251	 5754.44214490435 
2252	 5705.26006539001 
2253	 5646.10968178787 
2254	 5591.81819756648 
2255	 5546.90329113237 
2256	 5505.24893156907 
2257	 5464.68800159405 
2258	 5440.92634994618 
2259	 5400.14499757593 
2260	 5353.86915956976 
2261	 5303.5587198762 
2262	 5239.66803680459 
2263	 5184.69286564959 
2264	 5126.60270062553 
2265	 5073.66946654413 
2266	 5032.88652028928 
2267	 4983.1766915852 
2268	 4926.80557274927 
2269	 4878.47101506069 
2270	 4832.8135199176 
2271	 4790.4198812946 
2272	 4757.75954010978 
2273	 4722.7532803767 
2274	 4686.63484360893 
2275	 4648.68505155317 
2276	 4619.07301590526 
2277	 4598.80418744469 
2278	 4562.47516266508 
2279	 4529.58071170356 
2280	 4500.78963874633 
2281	 4461.47233104988 
2282	 4439.17122897931 
2283	 4425.79039860843 
2284	 4406.56654048157 
2285	 4375.32933467096 
2286	 4334.06624943384 
2287	 4295.16955469836 
2288	 4258.54925520161 
2289	 4216.25776684808 
2290	 4189.49911286515 
2291	 4174.13132835375 
2292	 4152.95049593732 
2293	 4143.29878879514 
2294	 4117.40511798748 
2295	 4081.8698241146 
2296	 4049.17377252339 
2297	 4009.69153384615 
2298	 3969.54300392695 
2299	 3928.76363208991 
2300	 3890.40665323817 
2301	 3850.93187151574 
2302	 3808.48813186774 
2303	 3769.00998932347 
2304	 3729.47264452861 
2305	 3691.9952413445 
2306	 3653.38782557885 
2307	 3621.16495928532 
2308	 3586.37507173137 
2309	 3543.90509548465 
2310	 3513.08704939327 
2311	 3482.72505554825 
2312	 3451.73653437336 
2313	 3424.07708811662 
2314	 3388.92659046401 
2315	 3353.89818418291 
2316	 3328.696892029 
2317	 3295.25303826012 
2318	 3265.45715942124 
2319	 3244.85990398396 
2320	 3207.99059316252 
2321	 3183.76741195763 
2322	 3161.66236074994 
2323	 3127.06763019373 
2324	 3111.3403287851 
2325	 3085.77083325319 
2326	 3049.56159939782 
2327	 3017.7541861572 
2328	 2975.13460297059 
2329	 2938.8993468702 
2330	 2909.0184204629 
2331	 2878.95476309464 
2332	 2855.51034708382 
2333	 2827.48142916375 
2334	 2796.90306490578 
2335	 2768.84439068861 
2336	 2740.76589932041 
2337	 2714.82157014552 
2338	 2693.82266745415 
2339	 2664.34329702346 
2340	 2627.35700724705 
2341	 2597.40246627002 
2342	 2563.52255733663 
2343	 2538.85491814144 
2344	 2529.94125845682 
2345	 2511.75659998544 
2346	 2491.09108357266 
2347	 2467.18927510096 
2348	 2440.6697363138 
2349	 2406.44505065121 
2350	 2378.4271386488 
2351	 2358.99176375021 
2352	 2337.79246281303 
2353	 2321.18473921802 
2354	 2292.29508184309 
2355	 2264.00403777505 
2356	 2234.13928024491 
2357	 2200.48206216908 
2358	 2188.96793980588 
2359	 2175.2378481302 
2360	 2158.73617777628 
2361	 2148.82416671883 
2362	 2132.29278234544 
2363	 2114.08684988565 
2364	 2087.28438006745 
2365	 2061.17778819124 
2366	 2036.3617710365 
2367	 2002.49138328385 
2368	 1975.34181090822 
2369	 1950.62596866369 
2370	 1932.29532035576 
2371	 1921.46240037647 
2372	 1910.33194698061 
2373	 1901.22461352047 
2374	 1884.28539116924 
2375	 1862.74964206342 
2376	 1847.71485950649 
2377	 1833.73010582118 
2378	 1811.79542040608 
2379	 1787.31540566586 
2380	 1756.66787947518 
2381	 1722.21685027925 
2382	 1693.5097436235 
2383	 1665.26214371506 
2384	 1643.27833841461 
2385	 1626.88108303334 
2386	 1608.53744673382 
2387	 1595.57167356481 
2388	 1586.66910976691 
2389	 1574.39322858066 
2390	 1559.08650151386 
2391	 1536.20114235656 
2392	 1514.43229930001 
2393	 1501.76519800133 
2394	 1485.77252464811 
2395	 1465.23294150379 
2396	 1442.87975712722 
2397	 1418.57733370456 
2398	 1396.98011993503 
2399	 1381.2204816166 
2400	 1371.3628246307 
2401	 1347.43867782618 
2402	 1321.04379654383 
2403	 1306.92231322795 
2404	 1289.57363482601 
2405	 1282.50571195789 
2406	 1276.38548179827 
2407	 1258.32596840779 
2408	 1238.09361966182 
2409	 1219.3217950534 
2410	 1202.06688833202 
2411	 1182.9111365414 
2412	 1164.28762185945 
2413	 1146.01215334852 
2414	 1133.16391478245 
2415	 1133.46970718512 
2416	 1134.77440625855 
2417	 1127.90849774568 
2418	 1121.06300094441 
2419	 1108.81238014694 
2420	 1086.46597989391 
2421	 1072.601530352 
2422	 1058.31719029794 
2423	 1029.97113060275 
2424	 1004.74415830745 
2425	 985.763375027019 
2426	 968.911678179702 
2427	 955.32756506522 
2428	 952.836136044656 
2429	 946.554156120267 
2430	 922.475686572503 
2431	 908.702355495947 
2432	 899.341586284869 
2433	 880.405079028592 
2434	 873.790816604473 
2435	 865.720949325239 
2436	 846.656706776757 
2437	 837.744602892803 
2438	 828.12262493482 
2439	 818.518014938564 
2440	 818.014555726394 
2441	 805.59720799456 
2442	 786.17460013471 
2443	 762.339932802395 
2444	 742.092433664182 
2445	 734.269580614463 
2446	 721.807228198395 
2447	 718.607632678517 
2448	 706.578907966921 
2449	 688.505005597661 
2450	 679.671130977874 
2451	 665.855234973512 
2452	 665.200983202972 
2453	 657.104205550491 
2454	 654.712914759162 
2455	 656.533224031878 
2456	 634.293267217888 
2457	 622.889792197848 
2458	 610.928638978469 
2459	 592.319154335632 
2460	 582.249275345857 
2461	 573.629271986324 
2462	 565.938171568647 
2463	 560.285130105538 
2464	 556.485142277327 
2465	 546.010816217273 
2466	 530.109591663727 
2467	 516.505351667799 
2468	 508.442323472193 
2469	 504.049944630065 
2470	 507.274918320536 
2471	 519.824315203171 
2472	 529.254881930623 
2473	 528.030203994017 
2474	 508.187007981646 
2475	 479.307865380955 
2476	 453.034385789737 
2477	 443.86736352219 
2478	 452.591878696259 
2479	 452.688095371485 
2480	 453.170089660722 
2481	 451.919864294924 
2482	 448.424960987646 
2483	 450.961982860491 
2484	 444.263229451238 
2485	 430.97038551791 
2486	 411.325680027009 
2487	 400.249490959215 
2488	 393.746446812912 
2489	 378.30018897518 
2490	 373.61047766446 
2491	 364.702232605009 
2492	 358.660691831145 
2493	 364.200228463483 
2494	 365.517332429313 
2495	 366.92313902721 
2496	 366.034874664433 
2497	 372.256215644492 
2498	 374.008102964803 
2499	 367.933982268769 
2500	 360.567491666019 
