Wavelength	spectrum00010.asd
350	 17.1656029584557 
351	 17.298099557701 
352	 17.7852824641121 
353	 18.6749887945959 
354	 19.4706703824747 
355	 19.5789320957545 
356	 21.1944414221765 
357	 23.7507109675233 
358	 24.513184862592 
359	 26.1097344762891 
360	 27.7622114270928 
361	 28.8601852703868 
362	 30.5415052357106 
363	 31.959146147899 
364	 33.528313565685 
365	 35.9366085919833 
366	 38.1162387336998 
367	 40.4326757572838 
368	 42.6479838710949 
369	 43.692760905324 
370	 44.9490514709631 
371	 46.9294510233241 
372	 49.4921081382173 
373	 51.1569902050249 
374	 52.9811525760934 
375	 55.5226876430858 
376	 58.7875315974 
377	 60.8426747976118 
378	 63.0679279441182 
379	 65.7087525198906 
380	 65.7278785525458 
381	 67.8937684854424 
382	 72.6603605388898 
383	 78.2159046608253 
384	 80.3485084765545 
385	 81.8465774458038 
386	 83.9499315329875 
387	 85.8175250392189 
388	 87.8082122943391 
389	 91.0616570565298 
390	 95.7132106278081 
391	 98.3852276684134 
392	 102.035844596927 
393	 106.002931369898 
394	 108.025426647253 
395	 112.625169538107 
396	 116.299313168313 
397	 117.523423165812 
398	 119.754488477697 
399	 125.095888884816 
400	 131.354271104494 
401	 135.463011597083 
402	 139.066832023373 
403	 143.450647193442 
404	 148.554593428092 
405	 152.985168508911 
406	 158.455463642386 
407	 164.352971512345 
408	 170.014747572762 
409	 176.260508854119 
410	 182.360054572725 
411	 188.76681911293 
412	 196.484853323335 
413	 204.517667409097 
414	 211.170381021571 
415	 217.064699951451 
416	 227.581276559584 
417	 235.512905521017 
418	 242.860216313109 
419	 253.724637599157 
420	 263.781659318209 
421	 273.953658862377 
422	 284.007513979495 
423	 292.123463828809 
424	 302.708338450141 
425	 313.89875863002 
426	 323.811189194278 
427	 336.124977469892 
428	 348.121346033143 
429	 359.849020314364 
430	 373.118120335463 
431	 385.62249314823 
432	 397.3547178171 
433	 408.781572719098 
434	 420.469641709081 
435	 433.099693504913 
436	 446.376314326696 
437	 459.557641203901 
438	 472.55931333307 
439	 484.94617813424 
440	 496.827392254159 
441	 509.032928308695 
442	 522.868814219935 
443	 536.224008289088 
444	 547.171157336112 
445	 559.155575096981 
446	 569.969060318412 
447	 579.859978319584 
448	 591.257722521021 
449	 602.373368330313 
450	 611.478466181833 
451	 618.73213806352 
452	 629.619683105695 
453	 638.349113729608 
454	 645.021021404165 
455	 652.717484403479 
456	 659.14841271815 
457	 665.121976983382 
458	 671.221996064858 
459	 676.977024464335 
460	 682.701621982546 
461	 687.809874028817 
462	 691.835061315849 
463	 696.959451136994 
464	 701.00160629251 
465	 704.23527917976 
466	 710.135462401308 
467	 715.815173935973 
468	 720.206430970904 
469	 723.416425005319 
470	 727.946312589408 
471	 732.487843213958 
472	 737.448719834928 
473	 744.373933711919 
474	 749.711104818476 
475	 754.285023149048 
476	 759.237127992097 
477	 764.146371781857 
478	 771.476552717214 
479	 779.679208130685 
480	 785.478349854333 
481	 790.453881374812 
482	 796.753608952386 
483	 804.304080830724 
484	 808.975355739767 
485	 815.57923959763 
486	 823.431022728988 
487	 830.187910809607 
488	 835.530592195411 
489	 842.480036767665 
490	 850.922094466854 
491	 856.979078191179 
492	 864.909018074881 
493	 873.956839510686 
494	 882.882552845918 
495	 893.589866619138 
496	 903.822303328268 
497	 914.463791998865 
498	 928.487493881997 
499	 940.378688177135 
500	 952.054177660102 
501	 965.769932012779 
502	 981.162931593684 
503	 998.929128734246 
504	 1016.88514382945 
505	 1032.18975326813 
506	 1050.29031611959 
507	 1069.13489585312 
508	 1088.20355246829 
509	 1111.19217131376 
510	 1135.58475577316 
511	 1160.94783485205 
512	 1187.44466290244 
513	 1214.33309543182 
514	 1243.79749758176 
515	 1276.63339265058 
516	 1311.79747242601 
517	 1346.51673026054 
518	 1383.67063862538 
519	 1425.52434905867 
520	 1466.14479524951 
521	 1508.72043579319 
522	 1553.49251659174 
523	 1598.36843909145 
524	 1646.37174129447 
525	 1694.30678630121 
526	 1740.01778511242 
527	 1786.70398002592 
528	 1835.18831392798 
529	 1884.43579686778 
530	 1932.23242783223 
531	 1976.69492514637 
532	 2023.09586390138 
533	 2072.8954724219 
534	 2119.21044866814 
535	 2163.88571216492 
536	 2207.52038658511 
537	 2250.14616549455 
538	 2289.76680860981 
539	 2328.94307805504 
540	 2368.80753171258 
541	 2408.34923431987 
542	 2446.88687249324 
543	 2486.09186889143 
544	 2527.14864535147 
545	 2566.886437726 
546	 2605.45801011903 
547	 2644.00989934108 
548	 2684.20419048488 
549	 2721.43662362596 
550	 2757.09576024622 
551	 2793.10401243074 
552	 2829.8258665377 
553	 2864.14445504016 
554	 2894.82708102455 
555	 2922.13487640373 
556	 2949.10254468277 
557	 2972.5372193122 
558	 2990.93864192999 
559	 3007.40334716569 
560	 3021.59226786018 
561	 3032.74700933222 
562	 3039.69988915156 
563	 3040.51247828659 
564	 3039.50422506072 
565	 3037.55129213764 
566	 3030.59074883812 
567	 3022.62669277577 
568	 3012.87962254865 
569	 3000.357099664 
570	 2987.93083629985 
571	 2978.18412197371 
572	 2972.45013535193 
573	 2970.81655957298 
574	 2972.49400543125 
575	 2974.58824711555 
576	 2976.0931309772 
577	 2981.72272248531 
578	 2991.00173261815 
579	 3004.17951547306 
580	 3021.34325930593 
581	 3039.37999738711 
582	 3055.79200608776 
583	 3069.65377124343 
584	 3082.91400153285 
585	 3089.88945765272 
586	 3093.35210742419 
587	 3098.27517891663 
588	 3101.52772615158 
589	 3103.93115054523 
590	 3106.04111960088 
591	 3107.81081032794 
592	 3108.00563360606 
593	 3105.19728719877 
594	 3099.23268140585 
595	 3094.27481612563 
596	 3089.44027883055 
597	 3084.99391149052 
598	 3082.22524761105 
599	 3082.9489926126 
600	 3084.17497250071 
601	 3083.61016422388 
602	 3082.87010818566 
603	 3082.21559502592 
604	 3081.14709207782 
605	 3078.7801353132 
606	 3075.13776397339 
607	 3070.30197931503 
608	 3064.84885163783 
609	 3060.11052088307 
610	 3055.64863246789 
611	 3051.53519419849 
612	 3047.39856863355 
613	 3039.87180451064 
614	 3033.52687856515 
615	 3029.74988826231 
616	 3026.1559989499 
617	 3023.24130866662 
618	 3021.63226140493 
619	 3022.18607314012 
620	 3026.45997813474 
621	 3031.75855420902 
622	 3036.77670330957 
623	 3041.4325573687 
624	 3047.5280002016 
625	 3056.37699677725 
626	 3067.42973776491 
627	 3076.5092688082 
628	 3086.60681764563 
629	 3096.73401514241 
630	 3104.83160875481 
631	 3112.36680468796 
632	 3118.82190738716 
633	 3123.75860356285 
634	 3127.03300115453 
635	 3126.70098817328 
636	 3123.97859496704 
637	 3120.44128101276 
638	 3115.48314529542 
639	 3108.52315837961 
640	 3100.48566089984 
641	 3093.25700295386 
642	 3084.54375101666 
643	 3075.44971543833 
644	 3067.44395344812 
645	 3061.74052719404 
646	 3055.81759670489 
647	 3049.88484571377 
648	 3045.56265012041 
649	 3044.62067215221 
650	 3045.31258652568 
651	 3046.72149295629 
652	 3049.54740287887 
653	 3054.03254178721 
654	 3058.90864041143 
655	 3063.38938467722 
656	 3070.58086827585 
657	 3077.08182201659 
658	 3082.49830751498 
659	 3088.97702308887 
660	 3095.60112445922 
661	 3104.40662497205 
662	 3115.83377388189 
663	 3125.31475442377 
664	 3136.73930924945 
665	 3150.2109461689 
666	 3164.39460925796 
667	 3180.50033096938 
668	 3196.95417683255 
669	 3214.02783363081 
670	 3234.76529875204 
671	 3255.74442222507 
672	 3278.17320088345 
673	 3303.46418870827 
674	 3328.7447591589 
675	 3356.52893551573 
676	 3385.99056272521 
677	 3414.12536214158 
678	 3445.28177608697 
679	 3478.69184281394 
680	 3513.25259512997 
681	 3548.57745699012 
682	 3588.83433018133 
683	 3632.14025719189 
684	 3675.38030382428 
685	 3724.06332712559 
686	 3777.52789570573 
687	 3834.86891267839 
688	 3895.51214715418 
689	 3964.98400133782 
690	 4044.02169742933 
691	 4132.69691994283 
692	 4232.75109659019 
693	 4346.70251689664 
694	 4475.61785102886 
695	 4619.70407814322 
696	 4780.12413335899 
697	 4961.07666063126 
698	 5163.77211862631 
699	 5383.93889681757 
700	 5626.11164125651 
701	 5884.37522481267 
702	 6152.57126689265 
703	 6439.86108373981 
704	 6736.62297711449 
705	 7039.37673854243 
706	 7350.70273392006 
707	 7671.64237286585 
708	 7998.74358861305 
709	 8330.45213370027 
710	 8671.61148232441 
711	 9018.28200713705 
712	 9369.74022109166 
713	 9726.74426132685 
714	 10090.8023846465 
715	 10459.3290982571 
716	 10831.4099813781 
717	 11208.3302655622 
718	 11588.5854356541 
719	 11973.1245029244 
720	 12362.0331821727 
721	 12752.0589670955 
722	 13139.2133551819 
723	 13523.9075681994 
724	 13908.3449487799 
725	 14287.6909553984 
726	 14661.8840135505 
727	 15032.2267837543 
728	 15401.1401832206 
729	 15764.1428246789 
730	 16120.9446747577 
731	 16471.4366502949 
732	 16811.6888823467 
733	 17146.4964995789 
734	 17475.7629602889 
735	 17796.0184133738 
736	 18104.3027828651 
737	 18407.3878649337 
738	 18707.5866519396 
739	 18998.2468320305 
740	 19282.9482198263 
741	 19561.447210171 
742	 19832.5489696462 
743	 20097.0172376674 
744	 20344.1664355415 
745	 20573.5472721178 
746	 20794.2123962328 
747	 21028.6625866705 
748	 21258.3997246424 
749	 21476.1513011062 
750	 21704.0867031785 
751	 21920.9683725749 
752	 22131.8762850569 
753	 22344.5908821453 
754	 22543.6888012636 
755	 22740.249684424 
756	 22938.9573893768 
757	 23138.3813825929 
758	 23331.6683779438 
759	 23513.9759492493 
760	 23687.6535143993 
761	 23865.7141900525 
762	 24045.6751783301 
763	 24226.636451441 
764	 24405.5580127168 
765	 24571.9638766465 
766	 24731.1132990862 
767	 24885.4369078142 
768	 25035.4299293821 
769	 25184.4128657604 
770	 25327.2465913331 
771	 25468.0981343824 
772	 25626.8348771232 
773	 25777.2483705621 
774	 25908.4605265035 
775	 26018.3231086102 
776	 26116.4636135348 
777	 26205.1278557754 
778	 26284.9096323011 
779	 26356.6813932697 
780	 26432.8200495402 
781	 26503.0866260589 
782	 26563.0349006606 
783	 26618.7536225675 
784	 26671.5183262489 
785	 26719.6579813922 
786	 26761.3780989565 
787	 26796.7927802305 
788	 26829.0381914548 
789	 26854.5804540951 
790	 26869.2165177794 
791	 26884.4192266345 
792	 26893.5357347503 
793	 26896.6228991645 
794	 26900.9697918951 
795	 26897.6098966243 
796	 26889.9745726146 
797	 26879.8007321663 
798	 26860.6267623548 
799	 26835.6109261548 
800	 26805.239147806 
801	 26769.1914697099 
802	 26728.5139639387 
803	 26671.7580935151 
804	 26606.0284959876 
805	 26549.6806561801 
806	 26493.6772564641 
807	 26435.1132657986 
808	 26373.4086668739 
809	 26310.3977332141 
810	 26235.216111654 
811	 26155.856020827 
812	 26080.0405635537 
813	 26002.1054687564 
814	 25913.9878242243 
815	 25814.3530759271 
816	 25706.4023407407 
817	 25596.313560299 
818	 25483.7072209911 
819	 25368.5585421063 
820	 25251.5386435907 
821	 25134.070243054 
822	 25010.9521319509 
823	 24881.1903265851 
824	 24752.2489756516 
825	 24618.2335000178 
826	 24482.4658789075 
827	 24347.2707934272 
828	 24203.2338942731 
829	 24063.6932538117 
830	 23924.3460268399 
831	 23775.5257905429 
832	 23631.5115542029 
833	 23483.9157811088 
834	 23329.6457664291 
835	 23172.5649726165 
836	 23021.5955993373 
837	 22876.0598920105 
838	 22733.6449780579 
839	 22592.4936702275 
840	 22451.3891469712 
841	 22311.919647161 
842	 22173.6303984765 
843	 22026.567971283 
844	 21888.7645509859 
845	 21755.3558485209 
846	 21615.2291821072 
847	 21481.6005647056 
848	 21350.7529762752 
849	 21220.3455414493 
850	 21090.013334335 
851	 20961.3665984583 
852	 20831.6951197314 
853	 20701.9208951592 
854	 20577.8376986142 
855	 20447.475620481 
856	 20314.8881143663 
857	 20185.0584570423 
858	 20056.4298403377 
859	 19934.7331859979 
860	 19818.8014636825 
861	 19703.7643680543 
862	 19582.5534044909 
863	 19450.4356212624 
864	 19315.2242486626 
865	 19187.7633967514 
866	 19053.5886123299 
867	 18919.5280598328 
868	 18787.2044776272 
869	 18652.7991157855 
870	 18518.8440081568 
871	 18383.2616827802 
872	 18245.6103405478 
873	 18108.3203043131 
874	 17969.2792734776 
875	 17829.1116236393 
876	 17688.4624541221 
877	 17546.643570179 
878	 17405.8877625576 
879	 17266.62922934 
880	 17127.464096473 
881	 16983.3972457178 
882	 16837.8114641268 
883	 16693.5782112788 
884	 16551.8929717359 
885	 16407.7309510382 
886	 16263.6247939458 
887	 16119.5177716442 
888	 15973.4369145644 
889	 15824.4201017325 
890	 15677.4222398828 
891	 15534.4516854845 
892	 15393.2447361039 
893	 15244.3761420126 
894	 15096.2955374125 
895	 14952.823424066 
896	 14807.3714904705 
897	 14664.7791224337 
898	 14523.3455177129 
899	 14380.9880655603 
900	 14237.4313010737 
901	 14100.2730256857 
902	 13963.2546929949 
903	 13820.2626843623 
904	 13676.7385977914 
905	 13538.0725366851 
906	 13403.0099565743 
907	 13268.1847124591 
908	 13134.0702344372 
909	 12998.9679701597 
910	 12863.7568856578 
911	 12730.4512257448 
912	 12599.4106492915 
913	 12469.2764521406 
914	 12338.7328335105 
915	 12207.3816763617 
916	 12079.349803152 
917	 11953.1192701579 
918	 11827.3782827045 
919	 11701.6031173723 
920	 11575.9073268371 
921	 11452.3194893299 
922	 11329.7463980885 
923	 11204.1183824354 
924	 11080.4627975371 
925	 10958.5878678167 
926	 10837.0937765191 
927	 10714.3776226063 
928	 10593.4069855791 
929	 10472.1880165461 
930	 10349.3239271763 
931	 10226.050075424 
932	 10104.8352618059 
933	 9985.01252770099 
934	 9864.92300113427 
935	 9742.53298104753 
936	 9627.67750604807 
937	 9514.4866390607 
938	 9397.81224644365 
939	 9285.05187510742 
940	 9171.08034716238 
941	 9058.01449474733 
942	 8947.35077752302 
943	 8832.75697772892 
944	 8718.1201684874 
945	 8603.45900152096 
946	 8488.67556953715 
947	 8377.52039634978 
948	 8265.41245702661 
949	 8151.76901917212 
950	 8038.07877911008 
951	 7926.834190164 
952	 7815.45792034863 
953	 7705.14299273356 
954	 7597.59742888717 
955	 7490.21456808717 
956	 7382.68781323903 
957	 7275.25212708964 
958	 7168.74452494435 
959	 7065.05105815672 
960	 6962.36767833649 
961	 6859.88854764038 
962	 6757.87214868735 
963	 6658.42730328356 
964	 6558.98809858168 
965	 6459.55309616186 
966	 6361.5010727786 
967	 6265.74201330909 
968	 6169.63012368007 
969	 6074.1613471579 
970	 5981.27482691424 
971	 5888.0900183889 
972	 5795.67220823556 
973	 5703.88863680468 
974	 5612.67630412353 
975	 5525.27935111635 
976	 5437.46007284029 
977	 5349.28340558928 
978	 5262.78155709263 
979	 5177.8330013856 
980	 5092.76543557558 
981	 5008.50600811315 
982	 4926.69706981344 
983	 4846.5639631343 
984	 4766.56071151084 
985	 4686.62162282798 
986	 4607.24229634893 
987	 4527.70397198555 
988	 4452.05977315128 
989	 4377.50550590853 
990	 4300.76868215158 
991	 4227.14274168926 
992	 4154.06888125314 
993	 4080.91765136742 
994	 4008.37382150751 
995	 3938.87523370794 
996	 3868.13678850135 
997	 3797.87816049433 
998	 3730.37566767126 
999	 3663.94053855758 
1000	 3597.58146536521 
1001	 7873.48141694478 
1002	 7912.53686145381 
1003	 7955.31074871102 
1004	 7998.18547350498 
1005	 8043.39630055027 
1006	 8094.15043368019 
1007	 8148.92691032216 
1008	 8198.62738864068 
1009	 8250.61069938685 
1010	 8311.15927202515 
1011	 8371.57215575514 
1012	 8436.70492517894 
1013	 8510.19334075998 
1014	 8583.05116008075 
1015	 8654.51902925933 
1016	 8732.07380699263 
1017	 8815.12146904096 
1018	 8898.0819422945 
1019	 8982.92391921835 
1020	 9074.01001825499 
1021	 9160.60694589324 
1022	 9246.52308081615 
1023	 9336.28189857621 
1024	 9424.56605670514 
1025	 9512.23937734715 
1026	 9605.54047093086 
1027	 9689.00266522357 
1028	 9767.73090686427 
1029	 9842.57036731666 
1030	 9916.15835803363 
1031	 9982.76188637592 
1032	 10042.8368010345 
1033	 10099.887226646 
1034	 10152.1493860565 
1035	 10200.6574692668 
1036	 10247.4615415207 
1037	 10285.6518870352 
1038	 10312.6404165709 
1039	 10336.4305703393 
1040	 10362.3216545392 
1041	 10386.1565158335 
1042	 10411.9314185313 
1043	 10434.5532808142 
1044	 10451.7400009049 
1045	 10463.0414573901 
1046	 10469.2773032124 
1047	 10478.9713765803 
1048	 10486.9306188115 
1049	 10491.6658529346 
1050	 10495.743035795 
1051	 10498.5186922607 
1052	 10503.7250408396 
1053	 10510.0289809259 
1054	 10516.7853893696 
1055	 10528.4145099747 
1056	 10539.2375281152 
1057	 10547.4528436199 
1058	 10564.5792630284 
1059	 10583.2744362029 
1060	 10608.652822887 
1061	 10646.4846365463 
1062	 10682.9721116066 
1063	 10718.9617578149 
1064	 10757.1918470749 
1065	 10800.2559865512 
1066	 10854.7606835687 
1067	 10914.0945385448 
1068	 10980.897500595 
1069	 11057.27483946 
1070	 11141.1883713385 
1071	 11216.9199723913 
1072	 11299.8921190766 
1073	 11395.3554622065 
1074	 11494.4092860336 
1075	 11606.9901438455 
1076	 11727.1802116211 
1077	 11850.4104171174 
1078	 11985.240708032 
1079	 12125.8260445812 
1080	 12269.0754933325 
1081	 12420.5419161424 
1082	 12576.9303959757 
1083	 12729.1577367512 
1084	 12885.3955559901 
1085	 13046.3562634944 
1086	 13210.7201756892 
1087	 13384.2162869633 
1088	 13550.4841651352 
1089	 13710.8966662303 
1090	 13878.1194835986 
1091	 14042.5523149756 
1092	 14201.3476872897 
1093	 14358.173364548 
1094	 14517.6568997785 
1095	 14671.2452624713 
1096	 14817.0086917174 
1097	 14962.9079457282 
1098	 15112.7487994467 
1099	 15255.561365839 
1100	 15391.1974108167 
1101	 15529.6470752496 
1102	 15660.3359061321 
1103	 15784.2152094436 
1104	 15910.3888611135 
1105	 16028.409743669 
1106	 16146.4359543437 
1107	 16266.452859069 
1108	 16381.1670603205 
1109	 16492.912676207 
1110	 16597.284645209 
1111	 16694.5938367245 
1112	 16789.9288221146 
1113	 16887.6070556923 
1114	 16985.2097196989 
1115	 17080.320452904 
1116	 17169.6403565193 
1117	 17247.2953071097 
1118	 17325.1987942222 
1119	 17405.185221949 
1120	 17485.1057270978 
1121	 17565.0221212692 
1122	 17646.7302906268 
1123	 17727.2993683598 
1124	 17807.0779981141 
1125	 17888.1238783309 
1126	 17973.1301885855 
1127	 18048.6200564333 
1128	 18126.1815200567 
1129	 18203.7006571658 
1130	 18272.7312040613 
1131	 18340.2025935471 
1132	 18403.3853963864 
1133	 18456.4849672103 
1134	 18522.4428556024 
1135	 18590.7999853358 
1136	 18658.3804493756 
1137	 18737.6661030736 
1138	 18803.8855796445 
1139	 18865.1131519406 
1140	 18921.3168434784 
1141	 18971.7923921569 
1142	 19016.8796389961 
1143	 19059.1844119325 
1144	 19100.8869126783 
1145	 19142.8693053391 
1146	 19190.3250625019 
1147	 19234.7679562904 
1148	 19276.771447945 
1149	 19323.9597315806 
1150	 19372.2013090699 
1151	 19420.1905957364 
1152	 19474.5697674168 
1153	 19524.5072567512 
1154	 19574.2975684563 
1155	 19621.3145751651 
1156	 19667.7450313474 
1157	 19705.5016353568 
1158	 19751.9527285322 
1159	 19793.8838498389 
1160	 19832.2233267958 
1161	 19877.9349480707 
1162	 19922.2220031714 
1163	 19966.6412630983 
1164	 20005.1012641783 
1165	 20044.6170674833 
1166	 20081.0384682169 
1167	 20109.4392079547 
1168	 20140.5032342832 
1169	 20172.9155363053 
1170	 20204.8125285638 
1171	 20237.5740424782 
1172	 20264.6421999794 
1173	 20292.7005959774 
1174	 20321.2631182014 
1175	 20345.7254232691 
1176	 20367.2034754552 
1177	 20385.8814906487 
1178	 20401.6551555881 
1179	 20417.5433526554 
1180	 20427.5368607013 
1181	 20442.858614666 
1182	 20459.0053464434 
1183	 20477.92397412 
1184	 20502.555239844 
1185	 20523.2542715394 
1186	 20541.2130551541 
1187	 20563.5112613511 
1188	 20588.6581266995 
1189	 20610.9791473466 
1190	 20630.6927663637 
1191	 20651.6057596008 
1192	 20672.6528254196 
1193	 20685.2559168661 
1194	 20709.2379554779 
1195	 20743.3627907016 
1196	 20772.1021699056 
1197	 20803.4927238219 
1198	 20832.2568521846 
1199	 20854.2026863624 
1200	 20884.1850881821 
1201	 20920.2507878244 
1202	 20952.2418287527 
1203	 20985.5373431384 
1204	 21021.5813446718 
1205	 21050.0210320002 
1206	 21078.3560343183 
1207	 21111.0138471445 
1208	 21145.4514509097 
1209	 21182.3824085438 
1210	 21225.277354636 
1211	 21261.282399196 
1212	 21294.8705743531 
1213	 21331.1637740422 
1214	 21364.2564027 
1215	 21400.1470974828 
1216	 21441.4862508198 
1217	 21479.7578283867 
1218	 21514.9494025465 
1219	 21552.8394908389 
1220	 21593.9092414142 
1221	 21630.7929595275 
1222	 21670.0967530261 
1223	 21713.5937161775 
1224	 21747.6680045176 
1225	 21778.5463220811 
1226	 21807.7019187606 
1227	 21832.0720440241 
1228	 21854.4547607785 
1229	 21876.0166335545 
1230	 21894.0963992028 
1231	 21905.6879545329 
1232	 21919.4280807663 
1233	 21934.1762480043 
1234	 21945.4316086412 
1235	 21956.5710610051 
1236	 21963.8233916128 
1237	 21968.0293057581 
1238	 21968.7910608355 
1239	 21967.5176039691 
1240	 21963.0395287962 
1241	 21957.4835738808 
1242	 21947.8134056797 
1243	 21941.1143422895 
1244	 21936.700243787 
1245	 21926.4196286506 
1246	 21915.2333728099 
1247	 21901.4653667408 
1248	 21880.5009175817 
1249	 21862.9916769404 
1250	 21842.9396335584 
1251	 21828.465673138 
1252	 21815.1839067565 
1253	 21805.7586412469 
1254	 21800.0280363018 
1255	 21802.2445048865 
1256	 21795.5018248883 
1257	 21790.3225547156 
1258	 21778.152653164 
1259	 21759.8298742255 
1260	 21741.9207126309 
1261	 21721.4950499442 
1262	 21699.3502368066 
1263	 21675.1197507076 
1264	 21649.4591622574 
1265	 21622.6143715502 
1266	 21592.8662160699 
1267	 21562.3450557868 
1268	 21527.7563662147 
1269	 21492.7886730842 
1270	 21450.0526403148 
1271	 21402.1491951333 
1272	 21348.855975069 
1273	 21292.7636640719 
1274	 21230.0523769413 
1275	 21165.8519172827 
1276	 21097.5711399563 
1277	 21031.1239966228 
1278	 20962.3922251861 
1279	 20892.408078828 
1280	 20822.1246667051 
1281	 20751.9074303981 
1282	 20676.700166664 
1283	 20606.5718372446 
1284	 20540.9554832651 
1285	 20473.951653632 
1286	 20401.1146607461 
1287	 20339.646500047 
1288	 20282.9628106592 
1289	 20230.1531455993 
1290	 20184.6082648586 
1291	 20145.7836827048 
1292	 20107.8028183656 
1293	 20070.575165149 
1294	 20039.7490077703 
1295	 20014.2065015447 
1296	 19992.207311184 
1297	 19974.765883706 
1298	 19959.875722753 
1299	 19946.1143332308 
1300	 19941.0883865191 
1301	 19940.1714707347 
1302	 19945.8190004826 
1303	 19961.4928921242 
1304	 19978.3723679696 
1305	 20002.5578679085 
1306	 20024.9380440679 
1307	 20047.4383693263 
1308	 20075.3759759539 
1309	 20101.6994430822 
1310	 20122.0675465535 
1311	 20143.8875249938 
1312	 20162.0867624624 
1313	 20188.1573331599 
1314	 20216.9386291766 
1315	 20245.7337324566 
1316	 20282.4446252284 
1317	 20311.4330319554 
1318	 20336.8686043543 
1319	 20360.6014788379 
1320	 20380.0977061555 
1321	 20401.9051857274 
1322	 20422.2835702828 
1323	 20443.4866989878 
1324	 20471.3062930046 
1325	 20489.9103985323 
1326	 20502.4471013887 
1327	 20514.0932205913 
1328	 20526.065914879 
1329	 20538.5265442114 
1330	 20548.608376104 
1331	 20563.3396949177 
1332	 20569.691350055 
1333	 20566.6207986398 
1334	 20570.2006276246 
1335	 20574.5730217192 
1336	 20577.9177767254 
1337	 20584.5000490496 
1338	 20586.3140499949 
1339	 20589.8770154767 
1340	 20583.0806874377 
1341	 20571.0332120504 
1342	 20553.4714728824 
1343	 20531.2748357181 
1344	 20498.6131353537 
1345	 20458.3355237016 
1346	 20413.6841744558 
1347	 20358.7251295018 
1348	 20299.5919339569 
1349	 20245.0018559519 
1350	 20174.0839024839 
1351	 20091.0914065056 
1352	 19993.7836093783 
1353	 19897.5754126966 
1354	 19784.1506620036 
1355	 19685.5496853752 
1356	 19595.187716321 
1357	 19495.7889764335 
1358	 19392.8587815637 
1359	 19294.5055704715 
1360	 19171.1015299661 
1361	 19094.3565434851 
1362	 19031.7965972756 
1363	 18998.3589043969 
1364	 19018.6900271239 
1365	 19022.1481538815 
1366	 19040.8416126763 
1367	 19053.9194208385 
1368	 19056.0718996549 
1369	 19066.1432247512 
1370	 19094.0981899629 
1371	 19125.698990669 
1372	 19146.9674852966 
1373	 19193.1631219983 
1374	 19173.5960815763 
1375	 19141.5486681997 
1376	 19043.6491257863 
1377	 18887.7616079798 
1378	 18715.3041623599 
1379	 18468.0777191652 
1380	 18270.2641755115 
1381	 18039.5857678663 
1382	 17877.0781959057 
1383	 17760.4805995113 
1384	 17651.5456808363 
1385	 17607.4095901856 
1386	 17520.4278858226 
1387	 17445.8285091107 
1388	 17328.3868610639 
1389	 17186.5025904298 
1390	 17012.7287381334 
1391	 16811.0289813484 
1392	 16589.2907693951 
1393	 16358.2648264885 
1394	 16126.0730012712 
1395	 15916.809014433 
1396	 15712.3284072214 
1397	 15525.3179146821 
1398	 15362.6057570608 
1399	 15190.9723503613 
1400	 15024.0012089546 
1401	 14860.4615784553 
1402	 14697.2164971886 
1403	 14541.7056379147 
1404	 14389.7266256153 
1405	 14247.8152820441 
1406	 14106.0927498807 
1407	 13985.2452500148 
1408	 13884.0268900166 
1409	 13783.9343979181 
1410	 13698.4295258724 
1411	 13613.9347555116 
1412	 13532.3970727227 
1413	 13453.6474539568 
1414	 13380.6277981401 
1415	 13311.9893532196 
1416	 13240.0671827875 
1417	 13172.4482493647 
1418	 13106.3820428476 
1419	 13044.5697491753 
1420	 12985.3458741692 
1421	 12927.0354434025 
1422	 12878.1054005479 
1423	 12834.8180188736 
1424	 12795.2017282324 
1425	 12763.9251856914 
1426	 12732.1478564068 
1427	 12703.0706155387 
1428	 12674.6202559417 
1429	 12647.8366947417 
1430	 12624.5723453889 
1431	 12600.8946858051 
1432	 12583.4861249795 
1433	 12572.8160659304 
1434	 12562.6485703807 
1435	 12557.0319705702 
1436	 12550.8330254765 
1437	 12542.684605757 
1438	 12539.8790958205 
1439	 12538.8625433545 
1440	 12542.8333971481 
1441	 12551.1954893175 
1442	 12559.1529602816 
1443	 12564.8677270742 
1444	 12570.5169930754 
1445	 12576.0964079668 
1446	 12580.249842962 
1447	 12586.4063407002 
1448	 12594.2442633279 
1449	 12600.1533966874 
1450	 12604.5036605362 
1451	 12613.7603439832 
1452	 12622.8478048326 
1453	 12634.8818159545 
1454	 12654.1751681618 
1455	 12666.8340589307 
1456	 12675.7878124683 
1457	 12689.3006050571 
1458	 12703.7893326955 
1459	 12716.4644486939 
1460	 12732.5635827171 
1461	 12744.263810627 
1462	 12751.5688838887 
1463	 12759.240649633 
1464	 12763.8225834044 
1465	 12772.2755075447 
1466	 12776.9972220329 
1467	 12790.0837208701 
1468	 12809.8242794335 
1469	 12830.5379271616 
1470	 12859.5884442878 
1471	 12891.1230824511 
1472	 12923.0037368386 
1473	 12952.943602849 
1474	 12978.6520342556 
1475	 13000.5859013852 
1476	 13023.0281545532 
1477	 13041.4180346273 
1478	 13064.7882702758 
1479	 13089.4652959818 
1480	 13115.519616382 
1481	 13145.0411490956 
1482	 13171.0569397124 
1483	 13195.5589268749 
1484	 13223.0707457642 
1485	 13250.7935431643 
1486	 13277.8382124475 
1487	 13308.1254087629 
1488	 13334.9939766079 
1489	 13357.4710610138 
1490	 13383.3296756055 
1491	 13410.3816453025 
1492	 13436.6359727579 
1493	 13464.8183545867 
1494	 13490.6764222584 
1495	 13512.9344917746 
1496	 13538.4343875161 
1497	 13566.1513900823 
1498	 13591.6587607423 
1499	 13618.3106420771 
1500	 13643.6562991759 
1501	 13665.5228111808 
1502	 13687.9080990536 
1503	 13713.2013574659 
1504	 13741.6586709676 
1505	 13768.222778014 
1506	 13792.6961204542 
1507	 13815.9191482702 
1508	 13836.5140426702 
1509	 13856.8259168677 
1510	 13877.5322210396 
1511	 13894.9128727886 
1512	 13907.7061843948 
1513	 13924.77253462 
1514	 13939.8734185059 
1515	 13960.510669566 
1516	 13987.6365796702 
1517	 14009.8617944051 
1518	 14035.4540738841 
1519	 14053.4249868998 
1520	 14064.2375195676 
1521	 14078.8633729851 
1522	 14089.5439658849 
1523	 14104.838051459 
1524	 14125.2624393922 
1525	 14141.9467954108 
1526	 14159.7405224863 
1527	 14174.5942229872 
1528	 14186.4467023341 
1529	 14198.3381918868 
1530	 14209.5667029491 
1531	 14219.4312157404 
1532	 14227.4163098209 
1533	 14235.9874784539 
1534	 14240.8383903265 
1535	 14250.1574572847 
1536	 14265.0295749666 
1537	 14275.6164433195 
1538	 14286.306062078 
1539	 14297.0217023129 
1540	 14303.5613824864 
1541	 14312.048549602 
1542	 14327.0743034981 
1543	 14337.4523472052 
1544	 14344.7772039643 
1545	 14349.6778616186 
1546	 14356.7310711424 
1547	 14361.081419057 
1548	 14366.6134982291 
1549	 14375.149384374 
1550	 14380.1403524377 
1551	 14381.5923075566 
1552	 14385.4391694387 
1553	 14388.6665802735 
1554	 14395.4243395518 
1555	 14404.6711202777 
1556	 14411.7769474508 
1557	 14423.6038453126 
1558	 14426.7931650079 
1559	 14421.9383949961 
1560	 14423.5093552328 
1561	 14424.1183621653 
1562	 14425.215984284 
1563	 14431.7397547683 
1564	 14432.3460361594 
1565	 14429.3846354027 
1566	 14425.2133244857 
1567	 14416.268401512 
1568	 14412.26421581 
1569	 14406.196021567 
1570	 14405.9132116226 
1571	 14415.5413111904 
1572	 14416.9080035804 
1573	 14416.73364633 
1574	 14416.1953043179 
1575	 14411.3212437568 
1576	 14407.2521852368 
1577	 14404.7290958538 
1578	 14400.8786555472 
1579	 14394.6770665245 
1580	 14389.0782815968 
1581	 14383.6575714123 
1582	 14378.3558578207 
1583	 14373.7756839444 
1584	 14367.4617748924 
1585	 14359.6942535881 
1586	 14353.0312964749 
1587	 14344.6985913117 
1588	 14338.0035832424 
1589	 14334.9236272243 
1590	 14329.293482663 
1591	 14322.9791032936 
1592	 14316.0207191018 
1593	 14305.2428206951 
1594	 14297.5246046649 
1595	 14292.2115380323 
1596	 14285.4220822653 
1597	 14281.0293014395 
1598	 14281.0059716514 
1599	 14272.3798123831 
1600	 14260.6566918583 
1601	 14250.2693677836 
1602	 14234.8537310499 
1603	 14224.955574389 
1604	 14219.9964158276 
1605	 14209.045866211 
1606	 14195.813227646 
1607	 14184.7092620716 
1608	 14171.9274220796 
1609	 14161.2395352757 
1610	 14156.5103181357 
1611	 14139.6799295171 
1612	 14116.2618240229 
1613	 14096.8981914826 
1614	 14070.5093770379 
1615	 14052.6713266984 
1616	 14042.2841851625 
1617	 14027.2760540194 
1618	 14015.4193258567 
1619	 13994.9283601151 
1620	 13970.6131441312 
1621	 13944.322186857 
1622	 13909.7430849324 
1623	 13881.70602883 
1624	 13854.1661960173 
1625	 13829.7448436762 
1626	 13809.8750364707 
1627	 13785.8353664005 
1628	 13764.0221216609 
1629	 13736.4731984167 
1630	 13704.5226943105 
1631	 13672.6817348573 
1632	 13637.8271884668 
1633	 13603.8452677897 
1634	 13566.4832402031 
1635	 13534.804030683 
1636	 13507.7097809386 
1637	 13476.4053339304 
1638	 13447.0779743156 
1639	 13415.7844506318 
1640	 13380.8736934548 
1641	 13345.787384565 
1642	 13311.5649497537 
1643	 13275.8348902987 
1644	 13236.0377571604 
1645	 13199.3157839593 
1646	 13165.6492634551 
1647	 13128.6357434707 
1648	 13091.4250944978 
1649	 13052.3038405474 
1650	 13009.5300287554 
1651	 12968.9873765747 
1652	 12929.0476396355 
1653	 12888.0550159401 
1654	 12850.7989593864 
1655	 12805.4907618525 
1656	 12755.6156435524 
1657	 12704.8628639453 
1658	 12644.1794891299 
1659	 12593.171346424 
1660	 12548.3286791061 
1661	 12498.6593072378 
1662	 12452.1190077488 
1663	 12402.9634929398 
1664	 12347.3759764523 
1665	 12297.0483091616 
1666	 12252.7759100474 
1667	 12202.0537975257 
1668	 12146.1673989746 
1669	 12095.7518165125 
1670	 12041.8921914112 
1671	 11994.4022121365 
1672	 11954.9061599816 
1673	 11914.0515455577 
1674	 11877.8419290335 
1675	 11836.8360726697 
1676	 11794.0018545607 
1677	 11751.7807705362 
1678	 11705.0429150838 
1679	 11662.7709511885 
1680	 11627.0954080273 
1681	 11584.3333218748 
1682	 11540.4021713643 
1683	 11493.0468166773 
1684	 11439.1443953379 
1685	 11388.2287692641 
1686	 11336.0863766025 
1687	 11286.276428963 
1688	 11235.8161191826 
1689	 11189.1337283844 
1690	 11145.9785057278 
1691	 11103.0558283182 
1692	 11064.6506475926 
1693	 11022.3520931886 
1694	 10978.9259413839 
1695	 10934.4341446695 
1696	 10886.7616402549 
1697	 10841.7093354175 
1698	 10796.2670229508 
1699	 10752.9342894617 
1700	 10713.0687799214 
1701	 10670.4897907297 
1702	 10626.580627527 
1703	 10584.2734756309 
1704	 10540.6284184161 
1705	 10499.5146287396 
1706	 10463.7070492342 
1707	 10424.0463778209 
1708	 10382.5550752023 
1709	 10341.8519170431 
1710	 10297.9427272585 
1711	 10257.332483121 
1712	 10220.5452110758 
1713	 10180.6241922704 
1714	 10141.5763693229 
1715	 10099.1702281174 
1716	 10051.3855606509 
1717	 10010.2173343781 
1718	 9973.42906920877 
1719	 9931.28887362602 
1720	 9889.81348062876 
1721	 9846.38549168798 
1722	 9795.32307864293 
1723	 9751.68871720136 
1724	 9713.7325694545 
1725	 9671.37262544052 
1726	 9629.09573731201 
1727	 9586.83829279405 
1728	 9539.73760682872 
1729	 9500.94836135896 
1730	 9470.47197663493 
1731	 9432.76386001942 
1732	 9394.74844399521 
1733	 9356.16594779397 
1734	 9311.77513624061 
1735	 9272.72739201709 
1736	 9237.67818314512 
1737	 9202.45384579882 
1738	 9168.05086168375 
1739	 9135.30776870075 
1740	 9106.50322403672 
1741	 9072.09187311478 
1742	 9036.40724977629 
1743	 8997.08544505036 
1744	 8952.82805013094 
1745	 8907.3226884982 
1746	 8867.52651408353 
1747	 8823.59578131514 
1748	 8775.6039440812 
1749	 8732.94878796938 
1750	 8690.22924333259 
1751	 8648.48371212245 
1752	 8608.87960876491 
1753	 8569.60093664086 
1754	 8526.47002027482 
1755	 8483.20743986994 
1756	 8443.71952898126 
1757	 8402.60681134417 
1758	 8359.31068474544 
1759	 8314.65783690165 
1760	 8272.01612166245 
1761	 8231.1397788908 
1762	 8194.96155241577 
1763	 8163.39726440404 
1764	 8125.03425642555 
1765	 8083.6966759525 
1766	 8044.21346799819 
1767	 7997.0587468263 
1768	 7952.16049191465 
1769	 7912.93209484171 
1770	 7866.16212950846 
1771	 7824.7146716151 
1772	 7790.26952333122 
1773	 7748.83140361574 
1774	 7710.8137321792 
1775	 7678.43378700921 
1776	 7641.82222099468 
1777	 7615.20403753144 
1778	 7589.45237458434 
1779	 7552.5530561152 
1780	 7515.013757275 
1781	 7463.69480667433 
1782	 7420.1417225946 
1783	 7380.30997938547 
1784	 7340.23217577849 
1785	 7300.46567289471 
1786	 7263.23070660144 
1787	 7227.45432144726 
1788	 7192.53525195223 
1789	 7164.5301905124 
1790	 7130.27952713919 
1791	 7090.43700148007 
1792	 7051.63544725707 
1793	 7010.45848686444 
1794	 6971.04327960858 
1795	 6934.00955697132 
1796	 6897.85161765685 
1797	 6859.88774260581 
1798	 6816.66463454161 
1799	 6771.71987944791 
1800	 6722.1117111278 
1801	 11824.0617517043 
1802	 11954.2923829063 
1803	 12086.9993475693 
1804	 12220.0019280091 
1805	 12352.9597896889 
1806	 12471.8254639012 
1807	 12575.109898106 
1808	 12670.8870951564 
1809	 12743.4255726381 
1810	 12821.2087537716 
1811	 12898.18955246 
1812	 12970.999804581 
1813	 13044.917171088 
1814	 13094.9496443758 
1815	 13144.249168353 
1816	 13195.1076045106 
1817	 13227.1593724624 
1818	 13268.9146153963 
1819	 13324.6678473623 
1820	 13397.1612388266 
1821	 13457.3040254821 
1822	 13525.8345635313 
1823	 13594.2642646904 
1824	 13628.5307368052 
1825	 13664.0769215216 
1826	 13709.3578464116 
1827	 13752.3909512991 
1828	 13805.365881215 
1829	 13891.4945126312 
1830	 13935.5607791995 
1831	 13972.1685512674 
1832	 13990.8821104387 
1833	 13963.922018776 
1834	 13938.8776416872 
1835	 13912.0618768279 
1836	 13887.4059780053 
1837	 13900.8072344826 
1838	 13943.8794097343 
1839	 14010.1786944705 
1840	 14130.9258955885 
1841	 14215.2586451239 
1842	 14320.5059796363 
1843	 14411.1977943357 
1844	 14417.0183077318 
1845	 14426.1494630422 
1846	 14447.0978067608 
1847	 14440.2855107696 
1848	 14467.8445900785 
1849	 14550.7644701614 
1850	 14584.8951517744 
1851	 14608.9106158194 
1852	 14629.2943866933 
1853	 14615.1718912638 
1854	 14574.5787178428 
1855	 14516.8081887653 
1856	 14466.2697295216 
1857	 14426.0095967684 
1858	 14387.1266245583 
1859	 14364.8967909763 
1860	 14395.6902988412 
1861	 14354.709916489 
1862	 14310.0019357106 
1863	 14228.7849242828 
1864	 14064.0785276382 
1865	 13862.3253284439 
1866	 13596.2691545172 
1867	 13317.278130704 
1868	 13048.0855971224 
1869	 12779.9715533484 
1870	 12564.304903716 
1871	 12384.8615708509 
1872	 12236.4839284904 
1873	 12121.0244546306 
1874	 12041.4119048698 
1875	 11981.320254409 
1876	 11920.2894283727 
1877	 11862.6714178029 
1878	 11777.1894090048 
1879	 11635.5682991495 
1880	 11475.2799425719 
1881	 11299.6077497916 
1882	 11087.0917364517 
1883	 10871.2478358383 
1884	 10664.5034111985 
1885	 10442.4075379401 
1886	 10226.2810999264 
1887	 10005.9664590607 
1888	 9785.37223915502 
1889	 9595.03768946698 
1890	 9421.64748177821 
1891	 9254.20013305529 
1892	 9101.181069193 
1893	 8963.55800524564 
1894	 8814.16061223003 
1895	 8658.92345678626 
1896	 8506.12246997153 
1897	 8337.84740857229 
1898	 8180.01658897617 
1899	 8036.72529748284 
1900	 7892.63576615591 
1901	 7770.97304973295 
1902	 7673.36339790165 
1903	 7598.25545405854 
1904	 7532.87280677574 
1905	 7487.51373593419 
1906	 7473.40417399991 
1907	 7447.46104369056 
1908	 7415.48357915615 
1909	 7399.77854790614 
1910	 7362.43589234368 
1911	 7324.11259748472 
1912	 7291.99308309537 
1913	 7258.07650861084 
1914	 7216.1847594107 
1915	 7185.02781492901 
1916	 7161.40007488681 
1917	 7140.57399980671 
1918	 7121.70303482015 
1919	 7094.27549317829 
1920	 7068.68181847771 
1921	 7054.80702884615 
1922	 7052.67552752879 
1923	 7062.5867005222 
1924	 7072.05359783719 
1925	 7090.74467682719 
1926	 7104.3102173356 
1927	 7117.86704149175 
1928	 7135.22425319089 
1929	 7154.39874929635 
1930	 7176.90569849066 
1931	 7193.56449353581 
1932	 7203.3585264461 
1933	 7208.57954899158 
1934	 7213.0514368711 
1935	 7222.30796792272 
1936	 7234.00511247603 
1937	 7244.74966768011 
1938	 7256.11205086178 
1939	 7279.8973852397 
1940	 7299.16567971144 
1941	 7315.72705231381 
1942	 7342.290286405 
1943	 7349.94035892345 
1944	 7363.51925803529 
1945	 7389.77888044555 
1946	 7406.35882108029 
1947	 7420.42936033839 
1948	 7438.89749794532 
1949	 7454.83403362946 
1950	 7468.12943459558 
1951	 7491.82592895135 
1952	 7520.038723541 
1953	 7542.21940088523 
1954	 7564.25185710756 
1955	 7591.48459197984 
1956	 7614.81334291828 
1957	 7642.70900411784 
1958	 7677.88192759309 
1959	 7708.73312635362 
1960	 7739.02887632108 
1961	 7765.86096965657 
1962	 7794.67346835285 
1963	 7814.91107811633 
1964	 7820.39963521052 
1965	 7826.45815747859 
1966	 7831.80281530678 
1967	 7841.41140613684 
1968	 7871.35608273369 
1969	 7914.88941530351 
1970	 7944.38362854704 
1971	 7975.66544609525 
1972	 8000.99898822874 
1973	 8019.18570412701 
1974	 8027.09639339301 
1975	 8042.14883581461 
1976	 8064.77672887178 
1977	 8084.28860212028 
1978	 8101.21299562325 
1979	 8121.25553014814 
1980	 8139.13331250866 
1981	 8152.20180129406 
1982	 8164.94437270896 
1983	 8180.28199977292 
1984	 8193.37758939864 
1985	 8213.43625747498 
1986	 8238.64689871355 
1987	 8266.7164423572 
1988	 8290.42911069995 
1989	 8309.26698984939 
1990	 8317.91067056657 
1991	 8334.17251074748 
1992	 8364.30563337648 
1993	 8390.10033698848 
1994	 8412.9654158193 
1995	 8442.2373780134 
1996	 8460.58547399983 
1997	 8469.26708368315 
1998	 8480.78286840409 
1999	 8489.28574265189 
2000	 8495.93047723311 
2001	 8512.70238032612 
2002	 8522.05491605341 
2003	 8536.68359985637 
2004	 8554.74306202181 
2005	 8569.07027997049 
2006	 8586.58994529722 
2007	 8604.66529506226 
2008	 8629.33495983051 
2009	 8649.47858366518 
2010	 8670.78324992518 
2011	 8683.51945263453 
2012	 8694.61875559387 
2013	 8697.02050177624 
2014	 8689.52033212548 
2015	 8686.92147066557 
2016	 8696.59068196138 
2017	 8708.15831727616 
2018	 8722.28564909625 
2019	 8739.71889236485 
2020	 8747.77736138319 
2021	 8746.43006415393 
2022	 8746.25224594464 
2023	 8741.4872616367 
2024	 8739.39497272678 
2025	 8735.9903119939 
2026	 8736.24397496797 
2027	 8735.12529011479 
2028	 8732.32373645548 
2029	 8724.88012575764 
2030	 8722.77895242748 
2031	 8717.3391178148 
2032	 8708.63365149315 
2033	 8706.66561708186 
2034	 8710.14871619174 
2035	 8703.22408189125 
2036	 8696.97964220604 
2037	 8690.62856093218 
2038	 8678.30619089351 
2039	 8664.70476703481 
2040	 8650.42250205244 
2041	 8638.66768489996 
2042	 8624.13302289708 
2043	 8607.15461952992 
2044	 8608.98328084641 
2045	 8614.59525874607 
2046	 8609.19858304978 
2047	 8606.42763431203 
2048	 8595.15297183774 
2049	 8570.09578280163 
2050	 8552.44845005119 
2051	 8533.48388466569 
2052	 8517.88559182088 
2053	 8504.04673120568 
2054	 8491.60311734414 
2055	 8487.8386652946 
2056	 8477.38243969655 
2057	 8470.36844058441 
2058	 8470.84813357712 
2059	 8460.41711788759 
2060	 8451.46821818751 
2061	 8441.30328024401 
2062	 8429.46411745585 
2063	 8412.42002257279 
2064	 8388.491716879 
2065	 8377.47364070072 
2066	 8371.07470277576 
2067	 8361.20182289451 
2068	 8358.85494395106 
2069	 8351.54281958913 
2070	 8332.94830719488 
2071	 8321.35826585508 
2072	 8319.31853934819 
2073	 8315.49583384547 
2074	 8317.82257369843 
2075	 8319.55726647539 
2076	 8314.52068037456 
2077	 8305.16513078343 
2078	 8298.61010478904 
2079	 8283.79984591615 
2080	 8279.49117017498 
2081	 8285.74027910804 
2082	 8284.12344418521 
2083	 8283.11363379066 
2084	 8281.27743313759 
2085	 8271.31208945279 
2086	 8262.34149979069 
2087	 8259.44319362196 
2088	 8257.36222636042 
2089	 8255.82082950675 
2090	 8253.71686067916 
2091	 8245.91682383274 
2092	 8242.19117298949 
2093	 8237.42191783435 
2094	 8231.69864357661 
2095	 8227.78589333221 
2096	 8225.49961207401 
2097	 8218.99818978209 
2098	 8211.83488085338 
2099	 8209.39863055008 
2100	 8207.03362336797 
2101	 8203.00545796968 
2102	 8209.76841058802 
2103	 8202.69581260021 
2104	 8188.34268994432 
2105	 8186.14362831865 
2106	 8184.45432487274 
2107	 8179.29093105282 
2108	 8173.57370954989 
2109	 8168.45859900541 
2110	 8163.27827283729 
2111	 8153.16811263683 
2112	 8152.48406238385 
2113	 8159.93104413839 
2114	 8161.02623429596 
2115	 8164.10399115065 
2116	 8163.17549835544 
2117	 8153.7301236486 
2118	 8155.5863344289 
2119	 8157.93062146025 
2120	 8154.95939261405 
2121	 8151.43811843976 
2122	 8141.56234532856 
2123	 8127.02396788717 
2124	 8119.75435203603 
2125	 8115.8175250145 
2126	 8119.14889481311 
2127	 8117.38261828122 
2128	 8115.26066070386 
2129	 8112.17718838653 
2130	 8103.37488429927 
2131	 8101.68269035613 
2132	 8110.10679951975 
2133	 8112.3382568526 
2134	 8116.60611536355 
2135	 8114.55863487532 
2136	 8106.22554349399 
2137	 8095.03014057562 
2138	 8080.96864611912 
2139	 8060.381509692 
2140	 8041.77139904553 
2141	 8022.97275716165 
2142	 8010.87108889614 
2143	 8006.83597050799 
2144	 8002.30024644506 
2145	 8006.39400548541 
2146	 8001.72366305598 
2147	 7988.51206645842 
2148	 7985.639403123 
2149	 7992.60217689474 
2150	 7986.48317709873 
2151	 7978.74657058874 
2152	 7971.01191958542 
2153	 7948.80720644898 
2154	 7928.51759137194 
2155	 7924.94726260631 
2156	 7925.73304294755 
2157	 7929.41031421969 
2158	 7920.18773801496 
2159	 7906.36694104832 
2160	 7898.89365534854 
2161	 7886.13646565439 
2162	 7868.64895907942 
2163	 7857.92457081943 
2164	 7846.51491355539 
2165	 7837.7540569281 
2166	 7837.15440028736 
2167	 7833.99447872108 
2168	 7833.05712866259 
2169	 7823.53952940513 
2170	 7806.59080512679 
2171	 7794.05350019241 
2172	 7778.65271706913 
2173	 7763.86883373179 
2174	 7755.42255020018 
2175	 7747.68275498588 
2176	 7729.63563635563 
2177	 7711.50913968933 
2178	 7692.27286885856 
2179	 7672.14026316033 
2180	 7667.86736075935 
2181	 7658.95447420663 
2182	 7645.3638055617 
2183	 7633.97323861063 
2184	 7617.03982582046 
2185	 7588.2251727477 
2186	 7572.5628879099 
2187	 7563.95478575991 
2188	 7549.58664033466 
2189	 7536.33186376564 
2190	 7520.49271284057 
2191	 7497.54503587722 
2192	 7482.56103648338 
2193	 7477.36415735276 
2194	 7467.000642857 
2195	 7447.93418541267 
2196	 7424.88620950571 
2197	 7393.65469210115 
2198	 7369.23626379776 
2199	 7354.89870777206 
2200	 7333.81562696603 
2201	 7307.22843415372 
2202	 7273.46674442135 
2203	 7242.09328082998 
2204	 7221.09203404958 
2205	 7199.91678538211 
2206	 7194.68003748314 
2207	 7169.21944484169 
2208	 7126.49424205955 
2209	 7097.08451398468 
2210	 7062.19364376278 
2211	 7034.33378875088 
2212	 7020.35190748584 
2213	 7004.54575718673 
2214	 6993.69925717556 
2215	 6970.16217844177 
2216	 6945.44070254808 
2217	 6919.53842084564 
2218	 6882.03393965577 
2219	 6857.65410807436 
2220	 6834.70128844836 
2221	 6803.26749625087 
2222	 6775.59151049899 
2223	 6740.21414363669 
2224	 6707.11199974073 
2225	 6678.79870139581 
2226	 6653.75092375632 
2227	 6631.10524023062 
2228	 6606.8844408292 
2229	 6590.24328648858 
2230	 6559.9672032936 
2231	 6521.28892139044 
2232	 6483.65474438951 
2233	 6439.40540319642 
2234	 6396.69609549892 
2235	 6351.84140230402 
2236	 6309.6336981949 
2237	 6269.44188677311 
2238	 6225.12201593228 
2239	 6176.21209097525 
2240	 6140.79708204391 
2241	 6104.00877530426 
2242	 6055.21397014403 
2243	 6007.98360928646 
2244	 5961.44168196524 
2245	 5912.9961102115 
2246	 5869.8153405109 
2247	 5833.79711970864 
2248	 5795.85158321366 
2249	 5748.63839881398 
2250	 5701.83537718817 
2251	 5654.95703851046 
2252	 5600.76809414314 
2253	 5547.95592920441 
2254	 5500.34880889777 
2255	 5458.59127030479 
2256	 5427.68654457828 
2257	 5386.38834097869 
2258	 5347.54610751971 
2259	 5301.71026740295 
2260	 5244.11371424554 
2261	 5190.475892305 
2262	 5136.1601317593 
2263	 5086.5626392595 
2264	 5039.03839624448 
2265	 4990.61259536422 
2266	 4945.6525285907 
2267	 4898.69550544688 
2268	 4845.17373956454 
2269	 4801.02006055473 
2270	 4764.67618251212 
2271	 4720.60036783564 
2272	 4677.97212273761 
2273	 4644.5896634984 
2274	 4612.59118613938 
2275	 4588.97648142456 
2276	 4570.98900971575 
2277	 4542.13019208951 
2278	 4508.58278205544 
2279	 4475.12944575534 
2280	 4438.67498099306 
2281	 4407.86421871092 
2282	 4375.62133296978 
2283	 4344.72615864908 
2284	 4327.16907696931 
2285	 4304.3216465522 
2286	 4276.1055613775 
2287	 4239.28166239777 
2288	 4202.8247781255 
2289	 4152.2365651523 
2290	 4120.47333531732 
2291	 4101.85795434424 
2292	 4073.35572693574 
2293	 4049.13035241476 
2294	 4015.50042814745 
2295	 3969.07765355557 
2296	 3936.45738561048 
2297	 3908.02458229974 
2298	 3873.17089665803 
2299	 3843.35071998305 
2300	 3808.1181615252 
2301	 3762.62249477178 
2302	 3727.54993720876 
2303	 3698.49646403257 
2304	 3664.24620052224 
2305	 3620.93900964185 
2306	 3584.58541892434 
2307	 3550.19771074544 
2308	 3518.03951011477 
2309	 3495.57834883425 
2310	 3463.29997912288 
2311	 3425.6857704663 
2312	 3385.30922624126 
2313	 3354.0183152332 
2314	 3331.0250456238 
2315	 3305.96150508786 
2316	 3278.45409715445 
2317	 3235.15790356713 
2318	 3195.61027832328 
2319	 3166.28315533962 
2320	 3134.27557048062 
2321	 3111.0868718917 
2322	 3088.35925555644 
2323	 3057.44373211087 
2324	 3029.71443620258 
2325	 3006.31878573638 
2326	 2984.76788944061 
2327	 2957.58078885677 
2328	 2921.93439637484 
2329	 2880.1880437611 
2330	 2835.2978027208 
2331	 2800.89023888874 
2332	 2772.48251687572 
2333	 2749.20944537643 
2334	 2738.12774691845 
2335	 2719.35319332053 
2336	 2699.2493037293 
2337	 2673.54954046723 
2338	 2642.42683238024 
2339	 2617.04242690518 
2340	 2592.41641436796 
2341	 2572.62646296552 
2342	 2561.09991098827 
2343	 2536.65095517579 
2344	 2507.19007406877 
2345	 2477.84560115361 
2346	 2434.15475720415 
2347	 2407.09545253039 
2348	 2390.90538333811 
2349	 2373.28137465185 
2350	 2346.84255338949 
2351	 2323.86614619044 
2352	 2295.63010630399 
2353	 2265.69443917927 
2354	 2242.91815768966 
2355	 2228.06551119876 
2356	 2212.32552830654 
2357	 2179.33444127129 
2358	 2150.87155414161 
2359	 2134.06552161567 
2360	 2107.07226889273 
2361	 2086.97291061773 
2362	 2077.8391435273 
2363	 2053.20693810109 
2364	 2031.44423255485 
2365	 2015.94275806812 
2366	 1989.63915333913 
2367	 1971.04067671268 
2368	 1953.50745764266 
2369	 1929.90482513866 
2370	 1914.30100978931 
2371	 1887.98702860037 
2372	 1850.98585194763 
2373	 1828.82706873249 
2374	 1806.21899816047 
2375	 1783.27731840325 
2376	 1771.41702519747 
2377	 1749.14347406355 
2378	 1724.66402247119 
2379	 1711.50480587086 
2380	 1695.26257986604 
2381	 1674.33418457992 
2382	 1654.91526136474 
2383	 1632.83354132981 
2384	 1613.97143811174 
2385	 1599.62495493919 
2386	 1576.86764643366 
2387	 1551.10066600708 
2388	 1530.37038229188 
2389	 1521.18138581883 
2390	 1513.99976318384 
2391	 1499.66538551756 
2392	 1481.1259673751 
2393	 1458.41824797543 
2394	 1442.27794681647 
2395	 1428.40328408343 
2396	 1414.26594913105 
2397	 1399.6050385211 
2398	 1378.32813861025 
2399	 1359.48969158359 
2400	 1339.06815973565 
2401	 1316.46605227782 
2402	 1302.11413824671 
2403	 1285.29637695275 
2404	 1270.45140473879 
2405	 1260.03143958757 
2406	 1242.54579628197 
2407	 1225.86848477754 
2408	 1208.15502139421 
2409	 1181.94057849808 
2410	 1148.98249766563 
2411	 1119.90744480495 
2412	 1103.54007415074 
2413	 1091.19981565673 
2414	 1082.59715570593 
2415	 1078.8437158505 
2416	 1068.32233433755 
2417	 1053.89578669789 
2418	 1046.14721055408 
2419	 1033.67551603525 
2420	 1014.45082992617 
2421	 993.014316055464 
2422	 973.184007559465 
2423	 958.694153084772 
2424	 945.578450805037 
2425	 941.689469087216 
2426	 936.136377535829 
2427	 930.746884115825 
2428	 926.484278096479 
2429	 915.326687505683 
2430	 900.645033808523 
2431	 877.505201154076 
2432	 863.438913148664 
2433	 854.546486840228 
2434	 839.115214310196 
2435	 835.139189118087 
2436	 831.206082086963 
2437	 818.159680647821 
2438	 800.257462203037 
2439	 780.801291398981 
2440	 769.046835534529 
2441	 751.313879615951 
2442	 732.004087614528 
2443	 722.834582623259 
2444	 712.115911000155 
2445	 695.82973439089 
2446	 693.313259593419 
2447	 696.170487350121 
2448	 683.69870319125 
2449	 676.577292784667 
2450	 673.513350020925 
2451	 666.829907232941 
2452	 660.486577921419 
2453	 651.536165654148 
2454	 639.652395444822 
2455	 625.768270733517 
2456	 616.097361602501 
2457	 607.431735689909 
2458	 607.655262325506 
2459	 607.098864803759 
2460	 590.132334945982 
2461	 583.987488363625 
2462	 579.950463250931 
2463	 566.049811319527 
2464	 560.457042541657 
2465	 552.374156947562 
2466	 537.931341798062 
2467	 525.899986745371 
2468	 518.031772033196 
2469	 514.195845215333 
2470	 511.945539028046 
2471	 504.046359189454 
2472	 492.179097015838 
2473	 480.06253787042 
2474	 466.781224390549 
2475	 458.336858541532 
2476	 450.80905795448 
2477	 452.943853960371 
2478	 453.331813527596 
2479	 446.07014685845 
2480	 440.612376916291 
2481	 423.634874224478 
2482	 408.660058660665 
2483	 399.188684167997 
2484	 400.48753169067 
2485	 407.052203330488 
2486	 401.747868650286 
2487	 395.79784484035 
2488	 390.945435991066 
2489	 387.017468506835 
2490	 391.384132300774 
2491	 387.447609234103 
2492	 370.61796864298 
2493	 361.173220488448 
2494	 349.40445310482 
2495	 351.838173285078 
2496	 365.879644718079 
2497	 357.706786827666 
2498	 350.155016569494 
2499	 338.854170112961 
2500	 316.940479783734 
