Wavelength	spectrum00009.asd
350	 16.2792887757765 
351	 18.4017621733178 
352	 18.119461818729 
353	 17.4374596053273 
354	 18.5950032175837 
355	 18.0245060622147 
356	 20.7900340827354 
357	 25.151556134402 
358	 24.1177251911291 
359	 25.3803958675961 
360	 27.1607206548953 
361	 27.6913951922678 
362	 28.873028771585 
363	 31.5009556528665 
364	 34.2933813392295 
365	 35.4854234945235 
366	 36.8500843988109 
367	 38.9685044937831 
368	 41.6355697683335 
369	 43.8249471303587 
370	 45.3328601470403 
371	 46.5666684567452 
372	 48.2392170855951 
373	 51.4905979480462 
374	 54.6646882548027 
375	 57.23273689405 
376	 59.397178700748 
377	 60.2790655514267 
378	 61.2325171934355 
379	 63.105680140941 
380	 65.2506196070763 
381	 67.6481843594669 
382	 71.1006944065405 
383	 75.929136167841 
384	 78.4992737809006 
385	 80.1433004117291 
386	 81.9723412783923 
387	 84.5256166509051 
388	 88.0490917005171 
389	 91.8155875649481 
390	 95.2155218372858 
391	 98.8684198146682 
392	 101.187583398742 
393	 102.667393765453 
394	 105.069915979529 
395	 109.112363264965 
396	 113.481750270138 
397	 117.143752528623 
398	 119.877634478515 
399	 124.682631853641 
400	 129.667333201312 
401	 132.411823765729 
402	 137.180742760751 
403	 143.432390434031 
404	 149.408393911884 
405	 152.540046377686 
406	 157.030878042515 
407	 162.522681789969 
408	 168.128298644736 
409	 174.784919055159 
410	 180.877291827276 
411	 186.833115360679 
412	 194.065989892605 
413	 200.015077401967 
414	 207.252380599801 
415	 216.539695773334 
416	 223.988442722701 
417	 232.352967779328 
418	 241.545791194575 
419	 250.503188635826 
420	 258.386123373301 
421	 268.033743156336 
422	 279.359581283569 
423	 288.775575550625 
424	 299.764187950196 
425	 310.696522844029 
426	 320.169134954437 
427	 331.669971169927 
428	 344.09696441207 
429	 356.315875049441 
430	 367.417377652034 
431	 379.60306447412 
432	 392.582396889235 
433	 405.504355144724 
434	 417.114187604787 
435	 428.565937440441 
436	 440.695063711652 
437	 453.839554557331 
438	 465.740061011051 
439	 478.392843037635 
440	 491.76736322163 
441	 502.522794146968 
442	 514.253631244806 
443	 526.998623911746 
444	 539.834517907626 
445	 552.809198342054 
446	 563.069165858337 
447	 572.112285018407 
448	 584.966494508889 
449	 594.868089829918 
450	 604.079544420023 
451	 614.486144716474 
452	 621.854338680429 
453	 629.267416230657 
454	 637.309740322309 
455	 645.048934752379 
456	 651.06652458041 
457	 657.333217013606 
458	 664.286907919437 
459	 668.758274114075 
460	 672.620605756414 
461	 677.435473256696 
462	 683.891749702968 
463	 688.311880250994 
464	 691.78782296497 
465	 695.54125944175 
466	 700.532028934022 
467	 706.004205013175 
468	 710.705911549002 
469	 714.214475252223 
470	 719.506390254295 
471	 725.315423401116 
472	 730.63695386044 
473	 734.87945735028 
474	 739.91211725859 
475	 745.193595960759 
476	 750.245236281468 
477	 755.696922205215 
478	 763.333283782324 
479	 770.815274068888 
480	 774.571509308906 
481	 780.630433955074 
482	 787.162253447107 
483	 793.057501430387 
484	 799.985689919578 
485	 806.866738490042 
486	 814.218113761257 
487	 822.41040939803 
488	 828.063236735539 
489	 833.790101842083 
490	 840.862800361451 
491	 848.586833212169 
492	 856.661118344052 
493	 864.880914061372 
494	 873.389531317168 
495	 883.381341002082 
496	 893.692300172243 
497	 904.555692550421 
498	 917.179284286774 
499	 929.69144253003 
500	 942.33496737806 
501	 955.90396218879 
502	 971.815253923048 
503	 987.117239822158 
504	 1002.53408715344 
505	 1020.38557448297 
506	 1038.87339584869 
507	 1057.24966068983 
508	 1076.79943989078 
509	 1102.4631642503 
510	 1126.85923742906 
511	 1150.45097960331 
512	 1176.11551058435 
513	 1202.77951123352 
514	 1232.65500437325 
515	 1265.9442886931 
516	 1300.31040290437 
517	 1335.24732973656 
518	 1372.32043548355 
519	 1412.82163815958 
520	 1454.78169488436 
521	 1498.31197676136 
522	 1543.01232167575 
523	 1588.19139972385 
524	 1635.9611762573 
525	 1684.25880467927 
526	 1731.30666894317 
527	 1777.89183713497 
528	 1825.3552677053 
529	 1873.81157179743 
530	 1922.34712781681 
531	 1967.77343260173 
532	 2014.27234315463 
533	 2063.18799426608 
534	 2109.19446774757 
535	 2153.48125430888 
536	 2196.55257214582 
537	 2238.59523657115 
538	 2278.06909681496 
539	 2317.94170590228 
540	 2358.86960054025 
541	 2398.31005923967 
542	 2436.6365199096 
543	 2474.97797609014 
544	 2514.3885644843 
545	 2554.62467595457 
546	 2594.80176076627 
547	 2634.61039848094 
548	 2674.17378591504 
549	 2711.60311932045 
550	 2747.81856092816 
551	 2783.76230462672 
552	 2819.11430289107 
553	 2851.57149743047 
554	 2881.80175229547 
555	 2911.74096326849 
556	 2937.62436608164 
557	 2960.270058477 
558	 2980.03409968221 
559	 2995.1866192114 
560	 3006.80653194664 
561	 3016.5349203506 
562	 3025.2652611284 
563	 3028.13553617224 
564	 3026.75981418567 
565	 3022.73866301714 
566	 3017.01536207746 
567	 3007.9847973734 
568	 2996.7709563032 
569	 2985.030925718 
570	 2972.66596174034 
571	 2963.94774015111 
572	 2959.06724389293 
573	 2954.73126386893 
574	 2953.84350666559 
575	 2954.94559079118 
576	 2957.42118208142 
577	 2965.31180355716 
578	 2975.18997118139 
579	 2986.94361583042 
580	 3002.05678040677 
581	 3019.14269908774 
582	 3034.94490769747 
583	 3048.38055439148 
584	 3063.36301416801 
585	 3068.90898801102 
586	 3070.35629704966 
587	 3076.69766468227 
588	 3078.22431093663 
589	 3079.55777727767 
590	 3082.45470999245 
591	 3084.08301719348 
592	 3084.02794841474 
593	 3081.43144746615 
594	 3076.1082436956 
595	 3069.89005903889 
596	 3064.54454201819 
597	 3060.50509081976 
598	 3057.16326475966 
599	 3055.96966960678 
600	 3057.08987892457 
601	 3059.04097437184 
602	 3056.68933449746 
603	 3054.73958514404 
604	 3053.17133094842 
605	 3049.84079959592 
606	 3045.75320942537 
607	 3041.99009555974 
608	 3038.59605779593 
609	 3033.95544107745 
610	 3027.8972079252 
611	 3021.85136873042 
612	 3016.84506270773 
613	 3008.32051331537 
614	 3002.26349636362 
615	 3000.24952811206 
616	 2998.64596968024 
617	 2996.45526054442 
618	 2993.53996930465 
619	 2991.24926049645 
620	 2994.54783216671 
621	 2999.05195943006 
622	 3003.50543864972 
623	 3008.76931701855 
624	 3014.30746322024 
625	 3022.03621464575 
626	 3032.22979513325 
627	 3041.1700816245 
628	 3050.30440836192 
629	 3059.95586102975 
630	 3069.73831737847 
631	 3077.48990402766 
632	 3082.94379230807 
633	 3087.17447553117 
634	 3092.73240337123 
635	 3091.14832459961 
636	 3086.46198156507 
637	 3083.76220701892 
638	 3078.51331114023 
639	 3071.80894066932 
640	 3063.53079225392 
641	 3052.92946995305 
642	 3044.74684309725 
643	 3036.68394298139 
644	 3027.21368910756 
645	 3019.38105689046 
646	 3013.26191558025 
647	 3008.08800979265 
648	 3003.04521106985 
649	 3000.55896635287 
650	 3000.75834450295 
651	 3002.65926990763 
652	 3004.06404205916 
653	 3007.76581050238 
654	 3012.54103612625 
655	 3016.80182949223 
656	 3022.31390315226 
657	 3028.12273994513 
658	 3033.46882418448 
659	 3038.05269240647 
660	 3045.13253659524 
661	 3054.0259521737 
662	 3063.51976125361 
663	 3072.83979228864 
664	 3083.51620629344 
665	 3095.93924239404 
666	 3109.87154562451 
667	 3124.74735633384 
668	 3140.63471281058 
669	 3157.6647316726 
670	 3175.93449800919 
671	 3197.32857192834 
672	 3219.79401530898 
673	 3241.6944931911 
674	 3267.32626585502 
675	 3294.35547735981 
676	 3322.12471679932 
677	 3351.29211620303 
678	 3381.01248860108 
679	 3412.15538899069 
680	 3445.54068684891 
681	 3481.2965579514 
682	 3519.24909879053 
683	 3560.44661746893 
684	 3605.80204470198 
685	 3652.06991316253 
686	 3703.33208236946 
687	 3760.80225563994 
688	 3821.85813561158 
689	 3890.66211941762 
690	 3968.58450812434 
691	 4056.74347783065 
692	 4157.62823482895 
693	 4270.54333985474 
694	 4398.28460848894 
695	 4545.0123215703 
696	 4705.81272917379 
697	 4887.13677247462 
698	 5091.57962000755 
699	 5313.15527955463 
700	 5554.60514011664 
701	 5814.08269640973 
702	 6088.66669294124 
703	 6378.3169945675 
704	 6676.58621858911 
705	 6981.52818366384 
706	 7295.28022392165 
707	 7615.92633554445 
708	 7944.05990335892 
709	 8280.20163036946 
710	 8623.97586937112 
711	 8972.91354436365 
712	 9326.96240525044 
713	 9687.03979442787 
714	 10052.5646967297 
715	 10424.7377338007 
716	 10802.1417451819 
717	 11180.4449367222 
718	 11560.5093719517 
719	 11946.2321774855 
720	 12339.0467825166 
721	 12732.236654391 
722	 13121.0985435571 
723	 13507.409097358 
724	 13895.3026914272 
725	 14276.2112769122 
726	 14651.0000436322 
727	 15022.9957713849 
728	 15397.4737074214 
729	 15761.32110063 
730	 16116.9784603397 
731	 16468.8665930199 
732	 16812.5336048107 
733	 17149.4137110306 
734	 17478.6741610084 
735	 17798.4492783594 
736	 18111.6159889244 
737	 18416.3375996714 
738	 18712.6237034167 
739	 19004.2817810112 
740	 19288.9160016658 
741	 19566.6372719006 
742	 19837.9226198475 
743	 20103.5973925388 
744	 20349.9221747872 
745	 20578.2692248564 
746	 20801.9683183611 
747	 21034.3558223227 
748	 21262.6107359244 
749	 21481.8185184706 
750	 21707.3575923353 
751	 21924.1431421672 
752	 22135.7836808556 
753	 22347.4091788992 
754	 22546.0004864592 
755	 22741.6698313368 
756	 22939.6885124271 
757	 23140.0565509574 
758	 23333.9262956192 
759	 23513.6808249723 
760	 23682.5438165845 
761	 23860.5428557359 
762	 24039.0079738263 
763	 24217.780065057 
764	 24395.8131160065 
765	 24561.0084469794 
766	 24720.9512609162 
767	 24876.490503163 
768	 25024.3629972506 
769	 25170.7141993361 
770	 25310.5691702126 
771	 25449.0196022394 
772	 25608.4706555365 
773	 25759.0870065663 
774	 25890.2563086838 
775	 26000.1865051331 
776	 26095.0944893653 
777	 26181.3351896644 
778	 26260.1180248352 
779	 26330.9235617117 
780	 26407.1917252988 
781	 26477.0259905056 
782	 26535.539345566 
783	 26590.247866341 
784	 26642.6407222378 
785	 26691.1066588567 
786	 26733.2369209615 
787	 26766.9061357791 
788	 26796.8573340177 
789	 26821.6220183013 
790	 26838.0111921856 
791	 26851.1115497414 
792	 26859.4901302322 
793	 26863.3328099948 
794	 26864.6240407915 
795	 26859.8460183719 
796	 26851.7341658848 
797	 26841.0916199848 
798	 26822.3639829639 
799	 26799.337675837 
800	 26769.460170657 
801	 26730.0495456883 
802	 26687.8748178149 
803	 26630.7013194327 
804	 26565.5847349572 
805	 26511.1221977154 
806	 26455.9230483399 
807	 26395.9084414898 
808	 26331.5702071441 
809	 26268.4985170714 
810	 26194.7220033747 
811	 26116.9773139532 
812	 26041.7454934979 
813	 25962.1087069258 
814	 25874.6870263772 
815	 25776.2757617782 
816	 25666.2702913249 
817	 25553.9152236737 
818	 25440.2753644306 
819	 25325.276676028 
820	 25208.3720278258 
821	 25091.8528624028 
822	 24969.9694812355 
823	 24840.7365554869 
824	 24710.2321738992 
825	 24575.9333398136 
826	 24440.1183081903 
827	 24304.1002325056 
828	 24162.0828036559 
829	 24020.9603530863 
830	 23879.5416258531 
831	 23733.8614634516 
832	 23589.3862510678 
833	 23441.3356597382 
834	 23288.1741084968 
835	 23132.5835159456 
836	 22982.4549877852 
837	 22836.5249310525 
838	 22692.7550750328 
839	 22550.6521162679 
840	 22410.5663116796 
841	 22271.0440574462 
842	 22130.6173653207 
843	 21988.5740269681 
844	 21850.7722962568 
845	 21714.9018135905 
846	 21576.5471530773 
847	 21440.5577737236 
848	 21308.1739586955 
849	 21178.0991790586 
850	 21048.0574690483 
851	 20926.1859457367 
852	 20798.3519327361 
853	 20663.1271531256 
854	 20538.2373554987 
855	 20408.911103045 
856	 20276.4792996431 
857	 20145.8177451608 
858	 20021.7317564719 
859	 19900.7406102551 
860	 19782.4437401466 
861	 19665.736632684 
862	 19544.7479498063 
863	 19415.0680791625 
864	 19280.9096820904 
865	 19149.7077814996 
866	 19017.3869393108 
867	 18883.7651012882 
868	 18749.8343150745 
869	 18617.0199094095 
870	 18482.5470870212 
871	 18346.219461091 
872	 18208.7911262313 
873	 18071.6538322195 
874	 17933.5890580078 
875	 17794.6093814933 
876	 17654.5791105901 
877	 17512.3036720333 
878	 17371.8210611031 
879	 17233.4014246166 
880	 17094.9263343629 
881	 16951.1662508664 
882	 16805.6844461479 
883	 16661.9576631003 
884	 16521.4603083547 
885	 16377.0917164419 
886	 16232.3309730116 
887	 16087.6610370218 
888	 15941.4649266726 
889	 15795.0080044267 
890	 15649.1686880092 
891	 15504.5322232914 
892	 15361.1086224199 
893	 15215.5764915024 
894	 15069.2781148439 
895	 14923.9370000264 
896	 14780.5326097942 
897	 14636.8556070362 
898	 14495.2647013811 
899	 14355.8122538599 
900	 14212.0014941091 
901	 14073.1193551139 
902	 13934.8509073 
903	 13791.9338069511 
904	 13646.7570053834 
905	 13510.4645968983 
906	 13378.5236698346 
907	 13242.7062743598 
908	 13106.0856433226 
909	 12970.988611906 
910	 12837.461172372 
911	 12704.5981582339 
912	 12573.6879525168 
913	 12443.0558218348 
914	 12312.5795606043 
915	 12183.2645935033 
916	 12055.3038891841 
917	 11928.3365472914 
918	 11802.7528493759 
919	 11679.0588110199 
920	 11552.1643757726 
921	 11427.3244928064 
922	 11305.5745323707 
923	 11182.3441528973 
924	 11061.3631928243 
925	 10938.9893070807 
926	 10814.2278367569 
927	 10691.0349311151 
928	 10569.7761763216 
929	 10449.3695385805 
930	 10328.1383459154 
931	 10204.274569658 
932	 10082.550354751 
933	 9963.58696502936 
934	 9845.19283345971 
935	 9721.86251632752 
936	 9605.44983357544 
937	 9492.64475197728 
938	 9378.87738805689 
939	 9267.38984350273 
940	 9153.25505834358 
941	 9038.03295086425 
942	 8924.37447945604 
943	 8812.13142442145 
944	 8698.46046051235 
945	 8584.27301189839 
946	 8471.19198812527 
947	 8358.40920148397 
948	 8247.14419836271 
949	 8134.53443170857 
950	 8019.09294825353 
951	 7909.6412666527 
952	 7797.80579638955 
953	 7687.10110207989 
954	 7582.44648256727 
955	 7473.80282438441 
956	 7367.01537530748 
957	 7261.34657810294 
958	 7154.50118052138 
959	 7051.12693354623 
960	 6948.52715642448 
961	 6845.6933225711 
962	 6743.12513120978 
963	 6643.34969458936 
964	 6543.40405287385 
965	 6444.6888909292 
966	 6349.39575916086 
967	 6253.09262499121 
968	 6155.69997861928 
969	 6059.60333564088 
970	 5966.92397572854 
971	 5873.26594920887 
972	 5781.79985464056 
973	 5690.88378204933 
974	 5598.36601840995 
975	 5511.24822380108 
976	 5424.64074226432 
977	 5337.45322028048 
978	 5250.79872797896 
979	 5165.22421978648 
980	 5081.01721967251 
981	 4996.6503761151 
982	 4911.60036259168 
983	 4832.4500035871 
984	 4754.14434552404 
985	 4675.72771830625 
986	 4597.89332710894 
987	 4519.48871668578 
988	 4441.09999621988 
989	 4364.72161996267 
990	 4291.31122968011 
991	 4216.71774950423 
992	 4143.48844811916 
993	 4071.53826663875 
994	 4000.13020696904 
995	 3929.74082820163 
996	 3859.34313334058 
997	 3789.7901244836 
998	 3721.93714536555 
999	 3654.9468648018 
1000	 3589.17205179588 
1001	 7796.68237144771 
1002	 7843.67130036408 
1003	 7890.41727291871 
1004	 7941.74226742295 
1005	 7991.48665144735 
1006	 8047.25174601437 
1007	 8099.60312069197 
1008	 8151.83203331061 
1009	 8209.79765412181 
1010	 8263.26689773774 
1011	 8319.2973828608 
1012	 8383.05519552021 
1013	 8452.44560412575 
1014	 8523.72962810751 
1015	 8602.13936234512 
1016	 8680.233776004 
1017	 8759.30517005758 
1018	 8840.69496416991 
1019	 8925.59711804819 
1020	 9009.59766825279 
1021	 9094.8039450883 
1022	 9189.64039126485 
1023	 9283.62375800439 
1024	 9373.81987422644 
1025	 9464.66444875102 
1026	 9557.45136936186 
1027	 9641.76427464289 
1028	 9721.98659558374 
1029	 9804.99203107808 
1030	 9870.69065482573 
1031	 9935.36281804977 
1032	 10001.5503062102 
1033	 10054.5136051618 
1034	 10114.6894551617 
1035	 10171.0872916233 
1036	 10214.1604199678 
1037	 10256.2447988711 
1038	 10289.4548096641 
1039	 10314.8566451047 
1040	 10336.474790624 
1041	 10350.9233361592 
1042	 10362.4819217116 
1043	 10374.1330760646 
1044	 10384.6963229082 
1045	 10396.0789677313 
1046	 10406.6296712936 
1047	 10416.8057422458 
1048	 10427.4259818231 
1049	 10436.7963093715 
1050	 10441.9062975565 
1051	 10446.1144484533 
1052	 10453.2716481253 
1053	 10462.6283597684 
1054	 10472.641419028 
1055	 10485.5719444789 
1056	 10501.7132099067 
1057	 10516.2669491656 
1058	 10530.2973689633 
1059	 10554.0670608766 
1060	 10582.9486305581 
1061	 10610.419205398 
1062	 10644.4030231369 
1063	 10681.9901427769 
1064	 10717.6530880876 
1065	 10760.1332599895 
1066	 10810.4902329858 
1067	 10868.9920293139 
1068	 10932.9947621365 
1069	 11008.1627624889 
1070	 11089.881572051 
1071	 11175.3115494188 
1072	 11265.9744038166 
1073	 11362.1732471028 
1074	 11467.6479500572 
1075	 11579.3699949227 
1076	 11693.5893090783 
1077	 11817.7826884158 
1078	 11952.8301752288 
1079	 12090.378832111 
1080	 12233.9755927189 
1081	 12387.1979319009 
1082	 12540.5796290868 
1083	 12693.8892472107 
1084	 12859.3921852459 
1085	 13019.3783994268 
1086	 13177.6020187811 
1087	 13342.8339541756 
1088	 13500.282502074 
1089	 13659.4502675482 
1090	 13825.0210486905 
1091	 13991.7272861776 
1092	 14158.8006873394 
1093	 14317.3796582701 
1094	 14475.1978737298 
1095	 14627.9933580204 
1096	 14772.6133981201 
1097	 14911.4020136031 
1098	 15057.9269335496 
1099	 15198.1683874937 
1100	 15335.8490370052 
1101	 15472.0419272147 
1102	 15598.4187780578 
1103	 15726.5717713238 
1104	 15853.8791996495 
1105	 15973.4535124305 
1106	 16090.4519403907 
1107	 16206.7822999292 
1108	 16317.3944549472 
1109	 16419.8131025038 
1110	 16523.0396269064 
1111	 16624.8371055768 
1112	 16722.9295630716 
1113	 16820.2401319426 
1114	 16917.5367767603 
1115	 17009.8342694958 
1116	 17103.1261884926 
1117	 17195.9102420749 
1118	 17278.0457988262 
1119	 17356.2219130676 
1120	 17424.5204098934 
1121	 17502.8810546212 
1122	 17578.5499565191 
1123	 17657.7307451546 
1124	 17748.4134009224 
1125	 17831.415660215 
1126	 17908.287227026 
1127	 17987.8229317396 
1128	 18069.7789673268 
1129	 18142.0758206371 
1130	 18215.0079317457 
1131	 18284.2304695199 
1132	 18350.5928318938 
1133	 18411.8466707735 
1134	 18477.1399259589 
1135	 18540.0770997764 
1136	 18606.3534490219 
1137	 18680.5493294268 
1138	 18744.1187329117 
1139	 18806.3119398743 
1140	 18862.0370474155 
1141	 18908.3185177851 
1142	 18954.3944393656 
1143	 19001.8426682266 
1144	 19046.4851686206 
1145	 19091.838909708 
1146	 19139.0934151398 
1147	 19185.3827115421 
1148	 19231.1161415481 
1149	 19275.90059556 
1150	 19318.6551864422 
1151	 19365.1980105896 
1152	 19412.9655568566 
1153	 19459.756387894 
1154	 19509.8565226365 
1155	 19559.1633963171 
1156	 19606.6192819188 
1157	 19653.2646154635 
1158	 19705.8643658372 
1159	 19752.3130388569 
1160	 19798.1470977929 
1161	 19843.6236245906 
1162	 19884.3828362793 
1163	 19921.1168863289 
1164	 19957.8580788889 
1165	 19990.4717423421 
1166	 20025.1264179727 
1167	 20061.432742481 
1168	 20094.914506234 
1169	 20128.0131593331 
1170	 20158.5785872733 
1171	 20188.0450162702 
1172	 20213.0872558263 
1173	 20237.798891377 
1174	 20261.4543408025 
1175	 20284.980584588 
1176	 20308.9964313899 
1177	 20329.5975146177 
1178	 20348.7646851987 
1179	 20366.1647181216 
1180	 20377.5968069823 
1181	 20394.7943535889 
1182	 20413.6373329002 
1183	 20432.9008982075 
1184	 20455.6934393485 
1185	 20476.4341353898 
1186	 20493.7626583427 
1187	 20514.6537458824 
1188	 20534.6271583794 
1189	 20561.6303951065 
1190	 20586.0109079858 
1191	 20614.9755339808 
1192	 20636.5821195231 
1193	 20651.0278958237 
1194	 20675.2116861162 
1195	 20701.1690932548 
1196	 20725.835663793 
1197	 20755.5473338788 
1198	 20784.5624463951 
1199	 20808.3278252975 
1200	 20837.5701753359 
1201	 20872.6791483297 
1202	 20907.3069836865 
1203	 20941.6029468175 
1204	 20980.7726868178 
1205	 21015.2021929432 
1206	 21048.4954136181 
1207	 21080.2796015576 
1208	 21105.591755552 
1209	 21138.9632303492 
1210	 21177.3864174055 
1211	 21211.4402644742 
1212	 21243.5268536935 
1213	 21281.3176747505 
1214	 21320.1249146127 
1215	 21358.9735221294 
1216	 21405.6844218372 
1217	 21446.8052818741 
1218	 21482.4571949589 
1219	 21519.6427969345 
1220	 21554.950202895 
1221	 21594.0872044702 
1222	 21629.5809561141 
1223	 21665.7503459105 
1224	 21697.4128495745 
1225	 21725.4512808942 
1226	 21754.3724643141 
1227	 21783.5611020713 
1228	 21807.1775023932 
1229	 21830.1669955284 
1230	 21848.3815190892 
1231	 21856.1379342424 
1232	 21870.3902860903 
1233	 21887.1848005885 
1234	 21900.6880624606 
1235	 21919.2683945478 
1236	 21929.9240036765 
1237	 21935.8336129598 
1238	 21935.9707232117 
1239	 21935.140128332 
1240	 21928.9321019579 
1241	 21924.0205296045 
1242	 21917.4105852572 
1243	 21910.7017180668 
1244	 21902.9056450693 
1245	 21894.8177064463 
1246	 21887.5784542307 
1247	 21877.0713034063 
1248	 21864.5047620311 
1249	 21851.4293044256 
1250	 21836.2564195854 
1251	 21820.4300325675 
1252	 21801.3269615447 
1253	 21785.8281408443 
1254	 21771.4183860727 
1255	 21757.7735971253 
1256	 21742.1322077825 
1257	 21727.7072721662 
1258	 21713.5942073727 
1259	 21698.2899001025 
1260	 21681.8007570205 
1261	 21666.5214251926 
1262	 21650.6238034706 
1263	 21634.7861844847 
1264	 21613.8447182705 
1265	 21597.9096943967 
1266	 21569.1501382509 
1267	 21528.5207717369 
1268	 21487.7123869593 
1269	 21439.5630941664 
1270	 21390.9802034325 
1271	 21341.5559557655 
1272	 21290.0721453589 
1273	 21231.8431061357 
1274	 21168.1665586778 
1275	 21105.0857789071 
1276	 21035.4237879379 
1277	 20970.7912283814 
1278	 20910.4381647132 
1279	 20843.6726869197 
1280	 20775.3363061041 
1281	 20705.4141410294 
1282	 20627.8780097368 
1283	 20557.0424160108 
1284	 20487.2432480638 
1285	 20420.3165041588 
1286	 20352.7807326207 
1287	 20293.7479563712 
1288	 20240.1204466246 
1289	 20189.716869091 
1290	 20146.2015683841 
1291	 20106.5617426089 
1292	 20068.7443978077 
1293	 20031.7638426569 
1294	 20000.9684982598 
1295	 19974.4658177444 
1296	 19952.9102360687 
1297	 19935.0769117557 
1298	 19923.4386565505 
1299	 19916.6515191276 
1300	 19915.0685003487 
1301	 19921.5696433546 
1302	 19928.1842998105 
1303	 19939.1277640483 
1304	 19952.2623286529 
1305	 19966.1456066553 
1306	 19983.9664567225 
1307	 20007.8590764532 
1308	 20030.715609166 
1309	 20056.1419266611 
1310	 20083.8807005192 
1311	 20104.7359650938 
1312	 20120.0966558968 
1313	 20142.9982929416 
1314	 20163.0448895419 
1315	 20190.2608629931 
1316	 20227.5179151454 
1317	 20258.3234184896 
1318	 20291.6460595966 
1319	 20318.3639964947 
1320	 20339.5795685037 
1321	 20363.2022060191 
1322	 20385.3866905458 
1323	 20404.9234966167 
1324	 20427.1015244978 
1325	 20443.9547385633 
1326	 20452.7557834673 
1327	 20463.8475680762 
1328	 20478.1341947061 
1329	 20487.0836246763 
1330	 20496.1303919777 
1331	 20505.8566930179 
1332	 20513.2064432403 
1333	 20515.7612806684 
1334	 20522.9212317686 
1335	 20533.9305505137 
1336	 20539.1446874295 
1337	 20547.1193585676 
1338	 20545.797660118 
1339	 20537.5300419126 
1340	 20528.0317886704 
1341	 20516.8102971143 
1342	 20496.6066437944 
1343	 20473.2535134368 
1344	 20441.5200075353 
1345	 20397.5188308588 
1346	 20353.4234095834 
1347	 20307.3657212221 
1348	 20256.2384199515 
1349	 20198.0955852483 
1350	 20124.0385469201 
1351	 20042.7192669074 
1352	 19945.5639997071 
1353	 19849.5439499225 
1354	 19744.5638152495 
1355	 19644.8102127321 
1356	 19542.3067390256 
1357	 19441.2285649605 
1358	 19340.5686189528 
1359	 19240.7399912 
1360	 19116.7094831179 
1361	 19041.0844116474 
1362	 18977.3988217814 
1363	 18945.0396693928 
1364	 18974.4184386013 
1365	 18979.9855426201 
1366	 18994.3960285568 
1367	 19005.9516586613 
1368	 19005.1540739287 
1369	 19012.9968714454 
1370	 19040.0553876831 
1371	 19073.2535259277 
1372	 19092.1772991043 
1373	 19132.8053611722 
1374	 19113.2105245629 
1375	 19084.0169235167 
1376	 18983.9553800147 
1377	 18825.4736453038 
1378	 18651.4452703539 
1379	 18397.4922767759 
1380	 18197.1860142195 
1381	 17970.2889758328 
1382	 17808.8188800689 
1383	 17692.7253736919 
1384	 17583.4606490982 
1385	 17540.0039213953 
1386	 17450.7407141667 
1387	 17367.8802569843 
1388	 17247.4751156811 
1389	 17108.3353262403 
1390	 16929.1023464551 
1391	 16723.5079224296 
1392	 16502.7025410079 
1393	 16264.5289833039 
1394	 16035.5182376443 
1395	 15826.7615345215 
1396	 15627.7841533069 
1397	 15438.3281569443 
1398	 15267.9898735504 
1399	 15094.4041970745 
1400	 14924.1954722843 
1401	 14759.09202162 
1402	 14599.5683929112 
1403	 14444.5847233424 
1404	 14288.9605874916 
1405	 14148.5983204739 
1406	 14013.2182058527 
1407	 13893.1159028641 
1408	 13791.5867426648 
1409	 13691.7374722536 
1410	 13607.1715497327 
1411	 13519.0616586041 
1412	 13431.1726924207 
1413	 13347.6099463782 
1414	 13265.8897465473 
1415	 13186.7074529201 
1416	 13112.263293902 
1417	 13044.6327573665 
1418	 12983.9323370835 
1419	 12924.8971609426 
1420	 12868.5066802135 
1421	 12817.4825289514 
1422	 12767.1859801084 
1423	 12715.7169568648 
1424	 12671.9330959029 
1425	 12629.6959948673 
1426	 12597.9572402596 
1427	 12580.5747356632 
1428	 12554.1539360169 
1429	 12530.0766930277 
1430	 12507.7030924029 
1431	 12477.0806867716 
1432	 12457.0316192677 
1433	 12448.0624256982 
1434	 12436.1448395772 
1435	 12424.7011481089 
1436	 12417.4780417703 
1437	 12414.1025948004 
1438	 12410.373769996 
1439	 12408.0978636506 
1440	 12407.7432822768 
1441	 12413.9998232794 
1442	 12417.3466356952 
1443	 12426.8875202836 
1444	 12442.4311374588 
1445	 12451.1023765873 
1446	 12456.3977119963 
1447	 12464.3042395803 
1448	 12470.9129629805 
1449	 12479.8163895945 
1450	 12491.3829826218 
1451	 12500.2080200807 
1452	 12506.4596532362 
1453	 12516.8973476218 
1454	 12527.4566017277 
1455	 12541.0021385172 
1456	 12562.7570452539 
1457	 12576.219541048 
1458	 12586.3798870571 
1459	 12597.0016004777 
1460	 12603.1462625838 
1461	 12610.842496649 
1462	 12618.9066614299 
1463	 12627.8341092526 
1464	 12632.3712496322 
1465	 12645.3762847185 
1466	 12666.4097091734 
1467	 12685.0665282918 
1468	 12709.8395271121 
1469	 12729.430864662 
1470	 12744.700719324 
1471	 12766.9893650268 
1472	 12787.8731731978 
1473	 12814.8065339461 
1474	 12842.4572273224 
1475	 12873.9153452965 
1476	 12902.0991871151 
1477	 12931.457824481 
1478	 12959.2210116736 
1479	 12985.5998571145 
1480	 13011.4349901041 
1481	 13036.6297209043 
1482	 13062.4031068994 
1483	 13086.7297944527 
1484	 13112.9711132395 
1485	 13142.4602903864 
1486	 13167.6600978165 
1487	 13188.2845826581 
1488	 13214.4811025801 
1489	 13241.4004706127 
1490	 13269.5054922922 
1491	 13303.8902112306 
1492	 13334.3531579325 
1493	 13362.7766237562 
1494	 13389.7975109219 
1495	 13416.1732261638 
1496	 13440.7362126039 
1497	 13459.8975487292 
1498	 13483.9665191284 
1499	 13512.1424009967 
1500	 13536.8819079757 
1501	 13562.3627966708 
1502	 13587.2762455879 
1503	 13610.930137264 
1504	 13630.9162722525 
1505	 13654.071763578 
1506	 13683.9844635251 
1507	 13709.7379010799 
1508	 13735.3414702148 
1509	 13760.3950484038 
1510	 13786.2878977785 
1511	 13807.5261276896 
1512	 13826.1865340838 
1513	 13845.4772312153 
1514	 13862.646119526 
1515	 13879.0813890272 
1516	 13894.934643988 
1517	 13912.1059700953 
1518	 13927.0134294476 
1519	 13944.171541347 
1520	 13963.8266047942 
1521	 13982.9626738785 
1522	 14003.0143011437 
1523	 14021.7891776672 
1524	 14044.4200317468 
1525	 14059.5233667359 
1526	 14067.3054414164 
1527	 14078.6900295788 
1528	 14087.4200567514 
1529	 14096.8709631892 
1530	 14107.1073151762 
1531	 14119.8928089501 
1532	 14133.1770906501 
1533	 14146.4431523789 
1534	 14165.5743977042 
1535	 14179.7712369013 
1536	 14189.6263099202 
1537	 14199.4196056805 
1538	 14207.0298055198 
1539	 14214.6321343897 
1540	 14217.2519277583 
1541	 14228.477000534 
1542	 14238.5459861966 
1543	 14248.3249238043 
1544	 14259.1496263187 
1545	 14272.9566785576 
1546	 14282.7945282492 
1547	 14292.0096197428 
1548	 14297.7676282912 
1549	 14299.6273861071 
1550	 14305.2831597849 
1551	 14310.1052341254 
1552	 14315.7015263485 
1553	 14325.7117606563 
1554	 14328.9761744214 
1555	 14328.0068624921 
1556	 14328.7013818429 
1557	 14324.2073389286 
1558	 14328.0104567475 
1559	 14339.226242265 
1560	 14342.4770041611 
1561	 14345.7856677565 
1562	 14348.7256416138 
1563	 14346.1360921703 
1564	 14346.3165595858 
1565	 14349.7104667215 
1566	 14352.1238614593 
1567	 14355.0296981101 
1568	 14354.0154624755 
1569	 14350.3731973145 
1570	 14349.6560505433 
1571	 14347.5879073873 
1572	 14344.7165898999 
1573	 14345.1051399749 
1574	 14343.1513916271 
1575	 14338.1852990746 
1576	 14332.2929861611 
1577	 14323.6291011678 
1578	 14319.340774484 
1579	 14316.359021099 
1580	 14311.9785569958 
1581	 14310.8614422839 
1582	 14308.4966898524 
1583	 14303.8446534179 
1584	 14298.5194082644 
1585	 14294.630706965 
1586	 14288.8946595683 
1587	 14278.705310821 
1588	 14271.0608894096 
1589	 14263.6611964298 
1590	 14257.6432169192 
1591	 14255.0396455704 
1592	 14250.2098756993 
1593	 14245.081184441 
1594	 14239.5310320014 
1595	 14234.4049427205 
1596	 14224.1538945813 
1597	 14219.13845427 
1598	 14215.7860639977 
1599	 14211.4004084511 
1600	 14209.1532846822 
1601	 14203.1617093656 
1602	 14196.1149621654 
1603	 14186.208295768 
1604	 14174.5369549664 
1605	 14159.7587179788 
1606	 14140.9345532353 
1607	 14123.7311297934 
1608	 14102.8037705533 
1609	 14089.3095899575 
1610	 14080.136782594 
1611	 14067.5824249612 
1612	 14057.746603572 
1613	 14045.3293668865 
1614	 14030.7465739571 
1615	 14014.8734625878 
1616	 13999.3742885089 
1617	 13981.3261330199 
1618	 13960.8066078185 
1619	 13938.0113256567 
1620	 13912.3834642493 
1621	 13889.0969434989 
1622	 13864.6993197927 
1623	 13838.5828664797 
1624	 13814.6019184505 
1625	 13787.2708056145 
1626	 13755.1871607012 
1627	 13725.3379239021 
1628	 13692.6488825409 
1629	 13667.2025693138 
1630	 13647.7194111019 
1631	 13621.8169947818 
1632	 13599.8374575215 
1633	 13571.7770166091 
1634	 13534.3705132836 
1635	 13502.6635655478 
1636	 13475.3782463292 
1637	 13440.917493539 
1638	 13402.8672192668 
1639	 13365.9493412845 
1640	 13324.1876178871 
1641	 13286.0116471455 
1642	 13250.165712911 
1643	 13215.232729984 
1644	 13183.0645744887 
1645	 13146.0828768797 
1646	 13110.4685313254 
1647	 13069.1902648222 
1648	 13017.3538632913 
1649	 12976.2503351722 
1650	 12939.7282865893 
1651	 12900.5878920123 
1652	 12865.9218515988 
1653	 12827.3617308898 
1654	 12784.3786229705 
1655	 12742.2360536729 
1656	 12703.2963454264 
1657	 12658.5949145841 
1658	 12610.030700195 
1659	 12559.9870056568 
1660	 12506.2124684381 
1661	 12453.382538198 
1662	 12398.411161325 
1663	 12344.5611966225 
1664	 12288.2082887413 
1665	 12236.6303419119 
1666	 12191.1042552014 
1667	 12140.3806994971 
1668	 12087.7351664808 
1669	 12039.010283086 
1670	 11984.5637116763 
1671	 11940.2913652505 
1672	 11906.9464039899 
1673	 11869.5153819851 
1674	 11836.8290622053 
1675	 11799.2917781001 
1676	 11758.2805876357 
1677	 11719.1826481503 
1678	 11682.405241058 
1679	 11638.6068390779 
1680	 11593.2811062455 
1681	 11544.7197701333 
1682	 11485.595519861 
1683	 11433.5055013657 
1684	 11381.8638349945 
1685	 11333.912145887 
1686	 11292.6875942517 
1687	 11247.7506910466 
1688	 11205.4976943193 
1689	 11157.5186173231 
1690	 11102.3963075731 
1691	 11051.3703079784 
1692	 10996.7666883395 
1693	 10948.7798923489 
1694	 10905.5775294383 
1695	 10864.9594199954 
1696	 10834.6586130035 
1697	 10792.3066215344 
1698	 10745.4453084407 
1699	 10698.7291536123 
1700	 10638.9495776095 
1701	 10594.6075883455 
1702	 10561.9087703052 
1703	 10523.5955175376 
1704	 10488.9147895285 
1705	 10454.0275728951 
1706	 10417.9428627092 
1707	 10380.2413879578 
1708	 10343.3892163962 
1709	 10305.8802098986 
1710	 10265.4407197038 
1711	 10225.2147575577 
1712	 10189.4144641178 
1713	 10147.0267424405 
1714	 10096.7895790779 
1715	 10052.2775672839 
1716	 10008.9165562305 
1717	 9963.52196156954 
1718	 9919.15369141709 
1719	 9875.85174164358 
1720	 9831.50366938952 
1721	 9786.82172913656 
1722	 9744.16604262144 
1723	 9700.84424748549 
1724	 9651.45339496481 
1725	 9609.57494607633 
1726	 9575.30376163353 
1727	 9535.05120497167 
1728	 9497.66902525106 
1729	 9455.76823537047 
1730	 9405.37999671663 
1731	 9361.36111360634 
1732	 9317.69352683725 
1733	 9279.34717390186 
1734	 9247.01418849623 
1735	 9211.72797643612 
1736	 9178.48346898345 
1737	 9141.54453996627 
1738	 9101.85027111418 
1739	 9064.4342760819 
1740	 9026.06913976794 
1741	 8990.66186067386 
1742	 8958.91146089737 
1743	 8921.2014734227 
1744	 8880.57285041874 
1745	 8845.14703721461 
1746	 8807.56256300662 
1747	 8774.17465245881 
1748	 8741.28402650906 
1749	 8695.88632466525 
1750	 8651.61814350568 
1751	 8602.81622868851 
1752	 8556.66526224113 
1753	 8520.5312857786 
1754	 8481.31881647538 
1755	 8444.44658724321 
1756	 8401.6746486631 
1757	 8352.32133064548 
1758	 8304.53024770594 
1759	 8256.65222996806 
1760	 8218.77310722354 
1761	 8185.58761365538 
1762	 8145.56269808863 
1763	 8103.63985681638 
1764	 8056.5799734997 
1765	 8006.21952913743 
1766	 7962.42233872399 
1767	 7923.5187446989 
1768	 7884.80050730863 
1769	 7844.48712471049 
1770	 7805.06307216561 
1771	 7768.70739719028 
1772	 7734.3787298635 
1773	 7702.742323526 
1774	 7667.48868477595 
1775	 7627.78182010667 
1776	 7589.85355793186 
1777	 7553.83397876092 
1778	 7518.1231540288 
1779	 7479.41655260011 
1780	 7441.39768701948 
1781	 7400.94233692128 
1782	 7362.73672428467 
1783	 7326.11048576079 
1784	 7289.52356485875 
1785	 7256.1387434043 
1786	 7217.6380191738 
1787	 7177.17366457304 
1788	 7138.92893985198 
1789	 7097.58920562161 
1790	 7059.85578598301 
1791	 7025.553050058 
1792	 6990.51535641086 
1793	 6954.96338765097 
1794	 6916.01723576163 
1795	 6878.42070086713 
1796	 6841.58682033088 
1797	 6802.39223695612 
1798	 6764.43730224717 
1799	 6723.05607586825 
1800	 6675.90040582518 
1801	 11718.7633009555 
1802	 11839.9347002151 
1803	 11962.6363761396 
1804	 12078.1379188185 
1805	 12194.2513450281 
1806	 12318.8703284007 
1807	 12438.0748851854 
1808	 12535.6292860142 
1809	 12617.3680123021 
1810	 12696.2192784842 
1811	 12754.6216031769 
1812	 12818.7355735279 
1813	 12880.1568726534 
1814	 12945.3355707974 
1815	 13004.3939575119 
1816	 13061.6522591708 
1817	 13103.2633238023 
1818	 13145.0307578599 
1819	 13200.7468024729 
1820	 13262.2122560641 
1821	 13319.2724706806 
1822	 13389.1723938359 
1823	 13455.4478551203 
1824	 13494.1937303764 
1825	 13531.1448463914 
1826	 13563.7348313326 
1827	 13601.5564893045 
1828	 13647.1280674324 
1829	 13710.9959659114 
1830	 13748.3151949652 
1831	 13782.3154160664 
1832	 13811.4610201303 
1833	 13809.9606684737 
1834	 13813.0548551764 
1835	 13802.5628645659 
1836	 13781.2946541238 
1837	 13784.3958446122 
1838	 13808.8552760897 
1839	 13867.116176928 
1840	 13992.9765924938 
1841	 14074.8588284074 
1842	 14176.6737551764 
1843	 14257.4393000821 
1844	 14262.466422494 
1845	 14272.3029414948 
1846	 14289.3639608613 
1847	 14287.5291633757 
1848	 14313.5577476264 
1849	 14384.7817458604 
1850	 14413.3729497513 
1851	 14432.1309921736 
1852	 14451.1600334049 
1853	 14440.8737964221 
1854	 14412.6478963519 
1855	 14373.9961692549 
1856	 14323.9234431664 
1857	 14280.7494890885 
1858	 14244.6679560161 
1859	 14212.5263850512 
1860	 14216.3332631267 
1861	 14169.0602195929 
1862	 14119.8399973126 
1863	 14032.3618988197 
1864	 13882.2424812926 
1865	 13684.3404225333 
1866	 13435.3076142946 
1867	 13159.1251367978 
1868	 12875.6586621511 
1869	 12600.6236200118 
1870	 12373.0253760236 
1871	 12165.4692960135 
1872	 12003.6219050384 
1873	 11904.0215325333 
1874	 11834.8457888437 
1875	 11789.7576943441 
1876	 11737.7462020151 
1877	 11659.6420156306 
1878	 11557.3447420454 
1879	 11409.4124653419 
1880	 11238.1333131761 
1881	 11056.3437056673 
1882	 10844.9961873359 
1883	 10628.5563401505 
1884	 10414.7064890627 
1885	 10203.2367687133 
1886	 9994.51306919154 
1887	 9775.79904531663 
1888	 9560.07476832634 
1889	 9354.78459553803 
1890	 9160.47824434905 
1891	 8981.39342911624 
1892	 8818.40969805634 
1893	 8672.17742633792 
1894	 8520.67745245405 
1895	 8365.00720883915 
1896	 8209.8702215994 
1897	 8049.92872538671 
1898	 7900.6526754661 
1899	 7768.94061676164 
1900	 7637.04458430113 
1901	 7515.03041369886 
1902	 7418.90895190819 
1903	 7340.89798505265 
1904	 7279.46863215782 
1905	 7235.55256957055 
1906	 7214.28394454273 
1907	 7194.53628137666 
1908	 7163.19679077431 
1909	 7136.8041247733 
1910	 7103.99190749834 
1911	 7056.38710701977 
1912	 7017.03890906315 
1913	 6984.2771746502 
1914	 6953.615166018 
1915	 6925.85447871762 
1916	 6916.64363527147 
1917	 6894.48434407188 
1918	 6862.8146118873 
1919	 6841.75866496788 
1920	 6824.05719161551 
1921	 6826.20565725675 
1922	 6833.43789373775 
1923	 6836.72062484647 
1924	 6846.33749521158 
1925	 6858.18648030487 
1926	 6864.21546777535 
1927	 6879.1024668803 
1928	 6899.43095626705 
1929	 6909.19460750078 
1930	 6921.63334037564 
1931	 6929.34056486986 
1932	 6935.85891693015 
1933	 6946.31836193713 
1934	 6951.56742586829 
1935	 6959.05197075875 
1936	 6969.10027893857 
1937	 6978.27939799127 
1938	 6984.17033305544 
1939	 6989.12010738448 
1940	 6999.89828002984 
1941	 7024.82582286072 
1942	 7048.53407757135 
1943	 7072.64072103012 
1944	 7097.06074781589 
1945	 7115.23785265221 
1946	 7135.2668336026 
1947	 7153.8668344984 
1948	 7179.60527845948 
1949	 7210.78235528317 
1950	 7235.7080900137 
1951	 7261.46360719898 
1952	 7283.48426854575 
1953	 7303.58802690314 
1954	 7317.92193323168 
1955	 7329.15135820483 
1956	 7352.88539634789 
1957	 7369.57877513059 
1958	 7386.15154052613 
1959	 7412.29075279577 
1960	 7452.30314589829 
1961	 7480.27722110204 
1962	 7501.28498655536 
1963	 7527.04164431873 
1964	 7546.53204103763 
1965	 7566.57624099817 
1966	 7595.18934440061 
1967	 7626.77804478125 
1968	 7646.795566738 
1969	 7662.77632187787 
1970	 7680.42125441223 
1971	 7694.57838104166 
1972	 7707.26287296164 
1973	 7718.01396496343 
1974	 7731.50704013966 
1975	 7753.70804630469 
1976	 7779.0538660487 
1977	 7807.96659918108 
1978	 7849.83517335085 
1979	 7872.25268403965 
1980	 7884.49860924736 
1981	 7909.71065101776 
1982	 7920.26811934235 
1983	 7934.15502466206 
1984	 7951.96695854144 
1985	 7969.88332396268 
1986	 7983.34932713563 
1987	 7998.32326022984 
1988	 8024.75290570709 
1989	 8046.07154474018 
1990	 8069.91327865596 
1991	 8099.9283430299 
1992	 8120.36585843738 
1993	 8140.84193083894 
1994	 8160.51946505859 
1995	 8175.1067937776 
1996	 8191.8581371605 
1997	 8208.90362926883 
1998	 8226.27128801007 
1999	 8243.80349971449 
2000	 8264.56662970144 
2001	 8277.9577702565 
2002	 8300.27362672519 
2003	 8306.34785704128 
2004	 8310.54080515356 
2005	 8333.51504128591 
2006	 8353.04812324345 
2007	 8368.12529418424 
2008	 8388.85663235224 
2009	 8402.0843016602 
2010	 8401.26211983871 
2011	 8409.70787119634 
2012	 8417.81525232677 
2013	 8441.2740696429 
2014	 8460.09709051727 
2015	 8466.31030242752 
2016	 8467.39665127469 
2017	 8465.94557407507 
2018	 8464.4185555482 
2019	 8469.15712082771 
2020	 8477.848120745 
2021	 8499.38927564764 
2022	 8505.20837820303 
2023	 8507.12263260195 
2024	 8509.55651531871 
2025	 8501.29227722315 
2026	 8502.24182342551 
2027	 8514.64326357481 
2028	 8517.55314771311 
2029	 8526.35754096098 
2030	 8524.05720997443 
2031	 8504.03865474778 
2032	 8489.60138659551 
2033	 8479.82551772935 
2034	 8463.70272361699 
2035	 8457.21620994541 
2036	 8466.68803911292 
2037	 8465.34095086202 
2038	 8461.85852333519 
2039	 8459.09205740575 
2040	 8458.61562853701 
2041	 8446.52415424714 
2042	 8430.20291332569 
2043	 8421.10798148536 
2044	 8416.03839398867 
2045	 8411.58980983238 
2046	 8407.63682675238 
2047	 8395.63230402277 
2048	 8383.87545549203 
2049	 8360.40876849026 
2050	 8346.17760240787 
2051	 8340.27750381176 
2052	 8330.13806697213 
2053	 8318.80887919406 
2054	 8308.78911602351 
2055	 8292.77207640569 
2056	 8278.56474639271 
2057	 8268.69355919501 
2058	 8262.07686483052 
2059	 8265.75871537954 
2060	 8264.72874102247 
2061	 8258.02425402653 
2062	 8245.915357539 
2063	 8235.56587821593 
2064	 8222.27193956523 
2065	 8210.28019533131 
2066	 8200.36021542207 
2067	 8189.40137166529 
2068	 8176.61697990579 
2069	 8159.67451632309 
2070	 8156.17728957229 
2071	 8152.84122035191 
2072	 8149.57492903517 
2073	 8150.86745791943 
2074	 8142.93697987689 
2075	 8134.14532070335 
2076	 8134.55769449329 
2077	 8145.59616039335 
2078	 8146.32647505407 
2079	 8150.95081533366 
2080	 8146.85233183249 
2081	 8127.05333635681 
2082	 8117.77016439515 
2083	 8105.58718561653 
2084	 8107.65413841486 
2085	 8117.19456404036 
2086	 8109.73820982422 
2087	 8107.84848198474 
2088	 8108.49063934927 
2089	 8099.66110135227 
2090	 8103.62599869505 
2091	 8109.6203924649 
2092	 8111.59713464213 
2093	 8106.60165842553 
2094	 8095.92200741435 
2095	 8087.49967637294 
2096	 8067.85505911458 
2097	 8057.50853192007 
2098	 8053.12804826176 
2099	 8052.63095084459 
2100	 8056.12111123113 
2101	 8065.1132294356 
2102	 8072.17502622895 
2103	 8070.4506250348 
2104	 8060.11773817695 
2105	 8047.68133266655 
2106	 8045.94419359477 
2107	 8044.13046218005 
2108	 8041.30202247802 
2109	 8044.80608468723 
2110	 8041.95451243879 
2111	 8033.72493918352 
2112	 8027.95863919503 
2113	 8022.62356781994 
2114	 8018.30279098031 
2115	 8015.43748068596 
2116	 8007.81063590926 
2117	 7997.94773554723 
2118	 7986.57155942299 
2119	 7980.01302959156 
2120	 7971.32579445144 
2121	 7975.60872779791 
2122	 7983.96640912138 
2123	 7979.73208658996 
2124	 7978.79867801221 
2125	 7981.47974131623 
2126	 7982.7110120777 
2127	 7986.20362755625 
2128	 8003.45127478139 
2129	 8001.88958099781 
2130	 7984.50442646928 
2131	 7977.32646651428 
2132	 7964.74096430072 
2133	 7956.58026286807 
2134	 7957.90233933747 
2135	 7958.262465084 
2136	 7937.03100248773 
2137	 7924.81418849412 
2138	 7913.29191559028 
2139	 7894.10978875896 
2140	 7895.83020846236 
2141	 7898.96100021848 
2142	 7894.17835194642 
2143	 7892.37644783618 
2144	 7887.44296936047 
2145	 7876.1892887308 
2146	 7869.8538251646 
2147	 7866.97611666137 
2148	 7862.17433545625 
2149	 7858.65310897503 
2150	 7850.76716655014 
2151	 7841.44091559748 
2152	 7826.45632644684 
2153	 7817.291768576 
2154	 7810.13121507368 
2155	 7802.46496708307 
2156	 7796.60637059926 
2157	 7785.82096204401 
2158	 7782.09636692551 
2159	 7779.31142670427 
2160	 7778.11661058287 
2161	 7769.44790532973 
2162	 7753.42091585847 
2163	 7745.1317240272 
2164	 7733.42422198733 
2165	 7725.62423082428 
2166	 7728.81460109431 
2167	 7721.41320780619 
2168	 7710.05584656786 
2169	 7695.85979831167 
2170	 7677.8866701358 
2171	 7660.57466889455 
2172	 7635.60164948196 
2173	 7619.93204679009 
2174	 7612.05964159138 
2175	 7594.22532882915 
2176	 7580.70053891831 
2177	 7564.01939627878 
2178	 7546.07716345273 
2179	 7537.74207694858 
2180	 7535.33305891591 
2181	 7539.57518308965 
2182	 7536.35566738291 
2183	 7537.81639309648 
2184	 7524.66776784766 
2185	 7495.74751486917 
2186	 7476.25396202691 
2187	 7451.31025035111 
2188	 7433.60651152599 
2189	 7426.32649976403 
2190	 7412.54688749501 
2191	 7398.9784480594 
2192	 7380.95107227773 
2193	 7362.20054492247 
2194	 7350.55000642057 
2195	 7331.69947825642 
2196	 7306.81976840211 
2197	 7286.82823240474 
2198	 7260.4159879486 
2199	 7231.41105382519 
2200	 7208.20299191878 
2201	 7177.92754263856 
2202	 7145.16895242033 
2203	 7118.1624942694 
2204	 7095.47076067304 
2205	 7077.22880101605 
2206	 7065.61838472239 
2207	 7046.60806942636 
2208	 7033.68640289439 
2209	 7014.15399976634 
2210	 6982.17794236637 
2211	 6958.30632385831 
2212	 6937.76956362504 
2213	 6913.31840594054 
2214	 6885.57040413791 
2215	 6869.30541007748 
2216	 6842.49941233428 
2217	 6814.82009040725 
2218	 6796.02807604716 
2219	 6770.45286992747 
2220	 6745.60943666761 
2221	 6723.95428255225 
2222	 6690.45122883404 
2223	 6652.05808427044 
2224	 6614.46527201882 
2225	 6573.2584087901 
2226	 6542.11468577489 
2227	 6510.93908507491 
2228	 6477.01081467692 
2229	 6446.98665157641 
2230	 6417.40098778605 
2231	 6382.47841363616 
2232	 6350.31070159023 
2233	 6327.32347991938 
2234	 6291.55216405689 
2235	 6248.51200210346 
2236	 6204.85117312872 
2237	 6150.98692819299 
2238	 6106.68636734622 
2239	 6062.45153850432 
2240	 6024.96729579464 
2241	 5997.33178011957 
2242	 5962.31833806685 
2243	 5913.97740756939 
2244	 5868.72744366494 
2245	 5821.4853596926 
2246	 5773.89962786521 
2247	 5726.69300950714 
2248	 5671.79147992225 
2249	 5620.3245791843 
2250	 5571.76964305307 
2251	 5530.80395526836 
2252	 5505.52615994411 
2253	 5463.17432882145 
2254	 5414.77593582712 
2255	 5365.5508061797 
2256	 5303.02672577693 
2257	 5249.96059160255 
2258	 5198.05133390059 
2259	 5151.40347238687 
2260	 5112.44768911856 
2261	 5074.63517322348 
2262	 5049.08104043454 
2263	 5007.39606768804 
2264	 4956.0796808884 
2265	 4907.99639683381 
2266	 4850.78341957053 
2267	 4798.37987775816 
2268	 4747.89635133676 
2269	 4702.30098677655 
2270	 4667.98391545763 
2271	 4619.43505260591 
2272	 4583.17653386909 
2273	 4547.96587686194 
2274	 4499.69425236715 
2275	 4485.84012594368 
2276	 4462.14790647473 
2277	 4436.19548637185 
2278	 4414.90628835944 
2279	 4364.65994163654 
2280	 4332.43012196653 
2281	 4306.21560494444 
2282	 4274.96726755452 
2283	 4255.87227978138 
2284	 4239.70024280671 
2285	 4218.75556315211 
2286	 4202.77907496506 
2287	 4187.54004793554 
2288	 4158.11584723568 
2289	 4114.81279401867 
2290	 4081.05917928662 
2291	 4040.43135533832 
2292	 4001.2623069918 
2293	 3968.80021146501 
2294	 3932.45067114464 
2295	 3892.8880724935 
2296	 3852.64673647803 
2297	 3805.99964221955 
2298	 3771.05637886098 
2299	 3740.97004090308 
2300	 3709.86340521825 
2301	 3691.11849470329 
2302	 3661.53531623792 
2303	 3616.06296671398 
2304	 3567.47484218837 
2305	 3530.32688596456 
2306	 3497.74519148264 
2307	 3464.18805543936 
2308	 3435.79544240577 
2309	 3390.6482035992 
2310	 3350.28902118432 
2311	 3327.81223221737 
2312	 3299.91441504978 
2313	 3281.92196451105 
2314	 3257.53710547787 
2315	 3211.01502947016 
2316	 3178.86499630239 
2317	 3151.25413175754 
2318	 3127.57385630958 
2319	 3117.68167709603 
2320	 3097.30581071999 
2321	 3067.45343871229 
2322	 3032.02073254461 
2323	 2999.67431105747 
2324	 2970.10904916515 
2325	 2941.93962365573 
2326	 2912.43629946371 
2327	 2875.57439960734 
2328	 2848.61219989687 
2329	 2819.72143761222 
2330	 2781.20539951042 
2331	 2750.40463471086 
2332	 2722.1926221612 
2333	 2696.71685611693 
2334	 2676.90085930897 
2335	 2655.21843318949 
2336	 2634.2837224722 
2337	 2608.97003432204 
2338	 2583.07795357969 
2339	 2552.6467787294 
2340	 2516.19799285543 
2341	 2485.90470840538 
2342	 2453.58070286431 
2343	 2426.65247114956 
2344	 2414.99078268593 
2345	 2389.48395828575 
2346	 2347.93632974705 
2347	 2322.18401184483 
2348	 2303.58206860295 
2349	 2270.06111729108 
2350	 2247.79379781702 
2351	 2234.73297926324 
2352	 2214.53421628998 
2353	 2200.46760588828 
2354	 2182.69954181087 
2355	 2156.91058277449 
2356	 2119.49396469915 
2357	 2078.66472089303 
2358	 2059.51540530519 
2359	 2044.9706322867 
2360	 2034.89778901291 
2361	 2028.96732659013 
2362	 2003.51086469165 
2363	 1984.64342961519 
2364	 1971.14216660363 
2365	 1940.59392392646 
2366	 1919.8487963184 
2367	 1902.56043207342 
2368	 1875.77723432244 
2369	 1865.71085555184 
2370	 1857.09641982271 
2371	 1839.52911739491 
2372	 1827.76768353032 
2373	 1809.6807212102 
2374	 1789.29724527804 
2375	 1767.54779582335 
2376	 1741.01154624118 
2377	 1711.34037337859 
2378	 1678.41877782072 
2379	 1656.9005578866 
2380	 1645.67564891146 
2381	 1633.50437965803 
2382	 1621.70826774706 
2383	 1607.40938132854 
2384	 1570.8241591433 
2385	 1535.04368518828 
2386	 1519.69576096821 
2387	 1495.73294096403 
2388	 1474.55518212485 
2389	 1460.73222336941 
2390	 1436.98303536387 
2391	 1420.13979598103 
2392	 1406.91284908422 
2393	 1385.46609373 
2394	 1365.63845742418 
2395	 1347.56338549737 
2396	 1331.88862053624 
2397	 1321.37992973099 
2398	 1310.48911253413 
2399	 1295.68494512576 
2400	 1282.9425929204 
2401	 1266.42645915982 
2402	 1244.27621879272 
2403	 1226.68564740555 
2404	 1209.70434981961 
2405	 1198.46208249908 
2406	 1199.26508738219 
2407	 1189.86901133228 
2408	 1160.06146804462 
2409	 1133.71513328103 
2410	 1109.52966890908 
2411	 1088.86286906556 
2412	 1074.69862840615 
2413	 1056.74266638635 
2414	 1039.59138922984 
2415	 1021.10016435121 
2416	 1010.31170541608 
2417	 1005.38114108636 
2418	 995.744332810303 
2419	 978.655022797176 
2420	 962.982199432855 
2421	 952.747338865603 
2422	 947.298586992278 
2423	 948.529325757024 
2424	 943.714364935466 
2425	 939.903637333849 
2426	 929.523425428788 
2427	 905.943783853419 
2428	 888.828035352346 
2429	 872.975683357984 
2430	 851.854455878653 
2431	 837.903399759211 
2432	 825.896372756693 
2433	 803.723914922343 
2434	 789.08812101704 
2435	 787.723962449559 
2436	 778.075008918141 
2437	 765.072577274867 
2438	 752.372868792369 
2439	 730.74299068763 
2440	 718.898960213057 
2441	 720.215905461627 
2442	 714.278154675785 
2443	 705.258154311356 
2444	 690.90777357682 
2445	 665.628503064191 
2446	 655.531842915246 
2447	 654.200113998217 
2448	 641.158484617914 
2449	 627.55684648505 
2450	 621.116980502572 
2451	 615.444188651233 
2452	 615.04518084564 
2453	 618.680144541735 
2454	 606.680954968847 
2455	 596.784270707734 
2456	 591.912587764326 
2457	 584.822014099512 
2458	 587.741782743551 
2459	 580.413516917678 
2460	 566.539153462644 
2461	 560.479914957449 
2462	 536.804048499453 
2463	 510.569363619132 
2464	 496.152972816499 
2465	 477.763235683146 
2466	 488.081220630117 
2467	 505.975864462071 
2468	 508.49430771679 
2469	 511.494666154863 
2470	 486.962632685999 
2471	 466.915409352306 
2472	 464.667572268474 
2473	 446.421553662214 
2474	 440.368920278638 
2475	 437.2120934074 
2476	 416.797250524834 
2477	 413.980951755902 
2478	 417.888565154484 
2479	 416.163602543301 
2480	 423.586358383027 
2481	 422.441348515719 
2482	 410.457311039456 
2483	 401.425721266085 
2484	 392.187664287912 
2485	 385.990427677161 
2486	 388.108438233094 
2487	 388.215733762499 
2488	 378.303960711712 
2489	 367.249176951871 
2490	 358.911292488655 
2491	 351.233185866842 
2492	 350.527378613151 
2493	 352.732804090076 
2494	 348.531864924146 
2495	 344.162410716533 
2496	 337.763412639233 
2497	 328.325531869231 
2498	 331.744966766264 
2499	 338.407543277596 
2500	 338.907125942206 
