Wavelength	spectrum00008.asd
350	 18.9357363768595 
351	 18.6581334352361 
352	 17.8768156482521 
353	 18.1284458289861 
354	 19.9532684835939 
355	 21.2639758884137 
356	 22.5035051243845 
357	 23.6158458314206 
358	 24.1474704605329 
359	 24.9732152422589 
360	 26.5081099069788 
361	 28.4669026776906 
362	 29.1426624641365 
363	 29.7197039711326 
364	 31.3852029305075 
365	 34.8117498636477 
366	 37.3668509930506 
367	 39.9093833083932 
368	 42.3893462978947 
369	 43.357385011213 
370	 45.7879783157659 
371	 47.851285997339 
372	 48.0219908486001 
373	 49.7094022328484 
374	 52.9623506894883 
375	 56.9033161026632 
376	 60.0109143677247 
377	 61.4465956624929 
378	 62.8464836821623 
379	 65.2515171114216 
380	 68.0407521984488 
381	 69.402202604741 
382	 71.301935290225 
383	 75.8754532266955 
384	 78.2778328178163 
385	 80.2774024081446 
386	 82.804598657467 
387	 85.4871360602017 
388	 87.4009826125856 
389	 90.3900849741573 
390	 95.0903133188708 
391	 96.4906541714266 
392	 99.4108182909703 
393	 103.728938457186 
394	 106.675375508503 
395	 110.587738122588 
396	 113.547443243526 
397	 115.393042271496 
398	 119.913742415765 
399	 125.409025176436 
400	 130.67040924913 
401	 134.652592056256 
402	 136.3448823503 
403	 140.496494868649 
404	 147.472061242442 
405	 152.853780087896 
406	 157.525177293473 
407	 162.545491415818 
408	 168.543759999498 
409	 174.580095330895 
410	 180.097885002899 
411	 185.676714907614 
412	 192.564208040719 
413	 200.911041312064 
414	 209.082659619336 
415	 216.609652693235 
416	 225.708244918864 
417	 234.276866121276 
418	 242.252149795323 
419	 250.432725872196 
420	 259.902252797407 
421	 269.897018111323 
422	 279.739146811219 
423	 289.03023382488 
424	 299.623383529258 
425	 310.869052542854 
426	 321.856878297186 
427	 333.017601607168 
428	 344.738391652473 
429	 356.928708173127 
430	 369.132163465177 
431	 381.022512804334 
432	 392.830793782092 
433	 404.967594888444 
434	 418.283507979007 
435	 429.809813169086 
436	 440.925010748819 
437	 454.327185046812 
438	 467.674412457814 
439	 480.533527778298 
440	 492.841300532347 
441	 504.80044852995 
442	 517.146152906017 
443	 529.717661951936 
444	 541.888948384867 
445	 552.497043355631 
446	 561.972949618282 
447	 571.793876843063 
448	 584.068912215991 
449	 595.322214149881 
450	 605.0975597391 
451	 613.777239348537 
452	 622.256782866203 
453	 629.402611700522 
454	 636.392306902275 
455	 645.221976851823 
456	 652.69650113529 
457	 658.6475384324 
458	 663.909249953288 
459	 670.547207352029 
460	 675.549654885677 
461	 679.644544862754 
462	 684.54610653339 
463	 689.130057948607 
464	 693.296780590753 
465	 697.522643504276 
466	 702.880478882107 
467	 706.792739617665 
468	 710.85990389964 
469	 716.70055495565 
470	 721.860861603599 
471	 727.007191348426 
472	 731.581130104118 
473	 734.410492961099 
474	 741.231339162731 
475	 748.129749468072 
476	 752.004848741347 
477	 755.796045626974 
478	 762.653672880165 
479	 770.377230185996 
480	 774.736813393823 
481	 781.364747554075 
482	 788.220247383089 
483	 794.103893907866 
484	 800.714942880214 
485	 807.018708574265 
486	 813.817309803914 
487	 821.762698496662 
488	 827.13128051199 
489	 833.765724819949 
490	 842.002451511696 
491	 847.714754939108 
492	 855.483468656342 
493	 864.611913089693 
494	 873.74984930105 
495	 884.342492397903 
496	 894.845538650282 
497	 905.522155355757 
498	 917.974926254938 
499	 931.154282139575 
500	 943.64797077957 
501	 955.617597718519 
502	 971.373642395116 
503	 987.677416285792 
504	 1004.29671698017 
505	 1022.23698634682 
506	 1039.54427484953 
507	 1057.21456734734 
508	 1076.83383332578 
509	 1100.67917873406 
510	 1124.01514325498 
511	 1147.40113577991 
512	 1173.04418616176 
513	 1200.23903260149 
514	 1231.49204964604 
515	 1265.72075711473 
516	 1297.50402202651 
517	 1332.00212612051 
518	 1369.62312051553 
519	 1409.35357511993 
520	 1449.68623501046 
521	 1492.07575318009 
522	 1536.51898778524 
523	 1581.77138462042 
524	 1627.46615163061 
525	 1673.55273281833 
526	 1720.2107579072 
527	 1768.05483845791 
528	 1815.82062473109 
529	 1863.1597806938 
530	 1910.17321067732 
531	 1956.06318468052 
532	 2001.92261265215 
533	 2048.18298881623 
534	 2093.70061496658 
535	 2138.96147582796 
536	 2182.26696928366 
537	 2222.13090086327 
538	 2262.85078097155 
539	 2303.23185795022 
540	 2342.409972497 
541	 2380.40169732473 
542	 2419.12416802964 
543	 2457.84009869749 
544	 2495.79641242509 
545	 2535.45665642737 
546	 2574.03908522296 
547	 2611.93187272547 
548	 2652.00879095044 
549	 2688.7186869273 
550	 2724.49977145385 
551	 2761.51114855523 
552	 2797.20007195763 
553	 2829.50769371352 
554	 2859.25958637097 
555	 2888.52700470916 
556	 2913.20733714844 
557	 2934.72014233328 
558	 2954.36189944112 
559	 2971.96177672926 
560	 2986.36290980629 
561	 2996.78631070513 
562	 3002.69558476044 
563	 3003.60883051411 
564	 3002.01978887238 
565	 2999.04375507011 
566	 2993.78848552761 
567	 2985.86199988642 
568	 2976.06726560643 
569	 2965.20259970906 
570	 2951.6883056768 
571	 2942.15356212531 
572	 2938.23069906671 
573	 2936.9074859164 
574	 2936.90882981699 
575	 2937.31309712753 
576	 2939.16675919375 
577	 2948.78736093773 
578	 2957.53302156091 
579	 2967.31405457857 
580	 2984.94998730117 
581	 3003.61754704012 
582	 3020.00720040345 
583	 3033.44312456346 
584	 3047.60456881223 
585	 3054.51695860489 
586	 3057.29322609625 
587	 3061.9119931679 
588	 3063.72086223147 
589	 3065.87786308422 
590	 3069.14144057626 
591	 3070.79612392484 
592	 3070.99076362803 
593	 3068.65468224217 
594	 3063.44315073571 
595	 3058.10585032606 
596	 3053.42668207649 
597	 3050.38588327525 
598	 3049.86287523907 
599	 3048.78941264393 
600	 3048.10212383997 
601	 3048.29040598123 
602	 3046.68325486233 
603	 3045.66118509507 
604	 3044.41694265236 
605	 3040.92889131362 
606	 3037.25523698258 
607	 3033.65864275015 
608	 3029.88062058076 
609	 3025.10710876582 
610	 3020.43367763631 
611	 3015.75358927891 
612	 3010.68668010195 
613	 3005.58233137967 
614	 3000.69215171956 
615	 2996.4426648391 
616	 2993.42425489674 
617	 2991.56358094978 
618	 2990.13458203432 
619	 2989.38027450494 
620	 2993.30242503515 
621	 2997.41024123563 
622	 3001.49770813616 
623	 3008.0542281222 
624	 3015.38705999743 
625	 3023.81438328119 
626	 3033.49667748851 
627	 3043.87524704944 
628	 3053.44379669146 
629	 3063.13598888586 
630	 3073.96490926565 
631	 3080.68209571292 
632	 3086.13467550943 
633	 3091.56847419499 
634	 3095.4356746166 
635	 3095.45628280391 
636	 3092.81903809372 
637	 3089.37096681703 
638	 3085.4461090502 
639	 3078.87027010857 
640	 3070.58567470201 
641	 3063.78101954565 
642	 3056.43428451883 
643	 3048.13422032703 
644	 3039.74649434806 
645	 3034.73499069617 
646	 3029.22382176664 
647	 3023.88362724349 
648	 3021.12967319481 
649	 3020.27057753306 
650	 3020.3838440915 
651	 3021.15677069074 
652	 3023.11131406993 
653	 3028.80680518545 
654	 3035.65696614806 
655	 3040.88667884736 
656	 3047.44124646376 
657	 3053.96701440249 
658	 3060.57921453931 
659	 3068.53487523371 
660	 3076.22720177893 
661	 3084.25584783476 
662	 3093.90717606143 
663	 3107.61079168759 
664	 3120.09150352497 
665	 3132.22781304896 
666	 3147.2489372093 
667	 3163.23509414361 
668	 3179.88060764528 
669	 3197.48139763492 
670	 3216.92701912989 
671	 3239.85219533033 
672	 3264.4985792486 
673	 3288.99100983285 
674	 3314.83487127603 
675	 3342.89441913045 
676	 3372.37937600649 
677	 3401.58777965279 
678	 3434.72952029714 
679	 3468.18960510581 
680	 3500.63604930382 
681	 3538.29211832258 
682	 3578.70664043254 
683	 3621.17209152299 
684	 3665.87774946922 
685	 3714.91307416907 
686	 3767.21496063017 
687	 3823.0265683277 
688	 3884.38418616448 
689	 3956.18566296476 
690	 4036.08669535525 
691	 4122.36521939785 
692	 4220.54416295901 
693	 4334.19400577277 
694	 4463.04643096014 
695	 4604.89776858623 
696	 4764.05005331132 
697	 4943.68850164515 
698	 5144.53209583897 
699	 5363.64224167102 
700	 5602.80305709721 
701	 5858.48460735918 
702	 6126.62880194272 
703	 6409.15548239639 
704	 6703.84499014008 
705	 7006.39831922834 
706	 7311.62327733515 
707	 7627.25032940937 
708	 7950.85484039156 
709	 8280.29434422588 
710	 8618.5477411237 
711	 8962.08837960341 
712	 9310.74983926779 
713	 9665.7020213166 
714	 10027.1930065303 
715	 10393.308296602 
716	 10762.6640584127 
717	 11134.7362634641 
718	 11510.2042473237 
719	 11890.9818017421 
720	 12277.3362695737 
721	 12664.8895386028 
722	 13050.475250272 
723	 13433.102066123 
724	 13812.9841826799 
725	 14188.2145757067 
726	 14559.5773494749 
727	 14928.3051403676 
728	 15295.8566531925 
729	 15655.9548232242 
730	 16009.6544148418 
731	 16358.2453808296 
732	 16696.1635330837 
733	 17028.311019784 
734	 17354.7947233881 
735	 17672.6483633946 
736	 17981.8058257628 
737	 18283.6051290026 
738	 18578.7843991509 
739	 18866.6527184258 
740	 19151.7747428443 
741	 19430.3411094212 
742	 19698.2741760594 
743	 19962.1059755344 
744	 20209.2100661139 
745	 20438.7594142155 
746	 20660.2544718604 
747	 20892.0426261988 
748	 21120.9909205324 
749	 21340.954126274 
750	 21565.7881251646 
751	 21782.3042838314 
752	 21994.1479134846 
753	 22205.9107008404 
754	 22403.9981009537 
755	 22600.8392284346 
756	 22801.0634973338 
757	 23002.0488786115 
758	 23195.9457844732 
759	 23377.0290443034 
760	 23548.6311904618 
761	 23727.7088135679 
762	 23908.2803165588 
763	 24089.2337227607 
764	 24268.0579374042 
765	 24433.7290062127 
766	 24591.6052062648 
767	 24745.6594783683 
768	 24898.1178381919 
769	 25046.600036961 
770	 25187.4095386835 
771	 25327.5049191585 
772	 25490.1400529163 
773	 25640.6272542413 
774	 25771.0517139711 
775	 25883.1471724892 
776	 25981.8999885083 
777	 26072.3959165674 
778	 26153.2755704131 
779	 26221.9837696252 
780	 26298.971580408 
781	 26371.0581054357 
782	 26431.5488469355 
783	 26486.7593417628 
784	 26539.7010140001 
785	 26588.9400864446 
786	 26631.9457440918 
787	 26666.5698003659 
788	 26697.5875348056 
789	 26723.3208327319 
790	 26740.3917881675 
791	 26754.4804770119 
792	 26763.7456196145 
793	 26769.0372536748 
794	 26773.9110454926 
795	 26772.7700735612 
796	 26764.7402464277 
797	 26750.8692309412 
798	 26734.1762384899 
799	 26712.8470360765 
800	 26684.7136882552 
801	 26648.1662613581 
802	 26605.2244539123 
803	 26549.5708718828 
804	 26488.2314260535 
805	 26435.396442849 
806	 26378.6570768837 
807	 26316.9194917478 
808	 26253.0068373902 
809	 26193.0363043072 
810	 26121.160273623 
811	 26042.8403049044 
812	 25965.5784692058 
813	 25887.6408646013 
814	 25801.404562014 
815	 25703.8613076545 
816	 25596.0692914635 
817	 25485.5970891054 
818	 25373.7514135883 
819	 25259.8704381082 
820	 25142.2520640746 
821	 25024.9265770294 
822	 24903.8551191674 
823	 24776.95770573 
824	 24647.3700559583 
825	 24515.4273043618 
826	 24381.3723160713 
827	 24244.6268853146 
828	 24101.9391430459 
829	 23961.4816930605 
830	 23820.8009698814 
831	 23674.2299434044 
832	 23531.3296289531 
833	 23383.241972479 
834	 23229.7347764146 
835	 23079.0321494342 
836	 22927.8961234292 
837	 22780.5724310409 
838	 22638.6341263982 
839	 22497.884221972 
840	 22357.1560084921 
841	 22217.3693645167 
842	 22078.7955679448 
843	 21937.1986817908 
844	 21800.2417162667 
845	 21665.8006225335 
846	 21528.9684964974 
847	 21394.5441253083 
848	 21263.2380203144 
849	 21132.5497688774 
850	 20999.202985341 
851	 20875.9994096641 
852	 20750.6684013998 
853	 20619.5362697777 
854	 20493.8182236458 
855	 20364.960319798 
856	 20233.07447976 
857	 20101.5917828611 
858	 19976.7237420707 
859	 19857.1422221774 
860	 19740.250242632 
861	 19622.7971757225 
862	 19502.8696698206 
863	 19372.6704482514 
864	 19238.3771932851 
865	 19110.7972842054 
866	 18979.7199715168 
867	 18845.1454367126 
868	 18710.0041304304 
869	 18578.2274488712 
870	 18443.1569357459 
871	 18308.1920275248 
872	 18173.9935483973 
873	 18035.9196625598 
874	 17898.1478033393 
875	 17759.2102860445 
876	 17618.0669869063 
877	 17476.8858836217 
878	 17338.1122029593 
879	 17199.7619409682 
880	 17059.0405087503 
881	 16915.5829206798 
882	 16771.4716405166 
883	 16629.1626302983 
884	 16489.4575474385 
885	 16345.3257964068 
886	 16201.2362247757 
887	 16056.9655256994 
888	 15909.6764517649 
889	 15764.8666159708 
890	 15619.6543030238 
891	 15474.3125343992 
892	 15332.2102726922 
893	 15184.4607460114 
894	 15039.3386562032 
895	 14898.8363728871 
896	 14752.8906889776 
897	 14609.0191640511 
898	 14467.3801049167 
899	 14326.5547355898 
900	 14185.1836167768 
901	 14045.6697495559 
902	 13906.2370307073 
903	 13764.9480537855 
904	 13622.070050928 
905	 13486.1088562463 
906	 13353.5350831388 
907	 13218.2807813803 
908	 13084.1421862408 
909	 12948.874462001 
910	 12813.7349498144 
911	 12681.3391020767 
912	 12551.7109201038 
913	 12420.6212416336 
914	 12288.8038054889 
915	 12160.0551998614 
916	 12033.6274894243 
917	 11906.9532543487 
918	 11780.8854699846 
919	 11658.4371901262 
920	 11532.6516439492 
921	 11409.0792976157 
922	 11288.1921037197 
923	 11163.8427717478 
924	 11039.8626612119 
925	 10917.2592733995 
926	 10795.4159829562 
927	 10672.3517649504 
928	 10551.8163872062 
929	 10431.0849857382 
930	 10308.2679448045 
931	 10185.0130128038 
932	 10064.5226360061 
933	 9946.23540754897 
934	 9828.07234410947 
935	 9707.06939610823 
936	 9590.59967731278 
937	 9476.62390373621 
938	 9362.30392208314 
939	 9249.54610455006 
940	 9136.7530947181 
941	 9024.13513035874 
942	 8911.82022299166 
943	 8798.01513612242 
944	 8684.8161232448 
945	 8572.24048792727 
946	 8459.61478046968 
947	 8346.43714500796 
948	 8234.38863387416 
949	 8121.66097852319 
950	 8007.19294748818 
951	 7897.42592688417 
952	 7785.97746469761 
953	 7675.23174915759 
954	 7569.18145657796 
955	 7463.01431741734 
956	 7356.63176911667 
957	 7249.70572100926 
958	 7142.73343473746 
959	 7039.30722185933 
960	 6937.70142543748 
961	 6836.10046260097 
962	 6733.88595982843 
963	 6635.17328339168 
964	 6534.93168632632 
965	 6435.8000456897 
966	 6341.83245269119 
967	 6245.37586087117 
968	 6148.2452105706 
969	 6052.46057357371 
970	 5959.20264754142 
971	 5866.32437447125 
972	 5774.7483895047 
973	 5683.98928749803 
974	 5593.57814692031 
975	 5506.62238936003 
976	 5418.38993132458 
977	 5330.08061682215 
978	 5244.69620927434 
979	 5158.96177360749 
980	 5073.97776381045 
981	 4989.8442992208 
982	 4906.79465710903 
983	 4827.81317732459 
984	 4748.26656266225 
985	 4668.62578944411 
986	 4590.86737880913 
987	 4512.90730527355 
988	 4436.19153547763 
989	 4360.80187382603 
990	 4286.25051945567 
991	 4212.29248391426 
992	 4138.89080434123 
993	 4067.26024829713 
994	 3997.55081684439 
995	 3925.5069498465 
996	 3853.40896049518 
997	 3784.69485476584 
998	 3719.94448423672 
999	 3651.70480819762 
1000	 3585.92438904823 
1001	 7754.13010563739 
1002	 7791.50159937193 
1003	 7832.17386350626 
1004	 7873.55917638582 
1005	 7921.12540001933 
1006	 7977.75333852195 
1007	 8039.26583388834 
1008	 8100.68748823116 
1009	 8160.42633266716 
1010	 8218.23689224952 
1011	 8272.52986718416 
1012	 8335.50052002953 
1013	 8406.36974498853 
1014	 8477.14225764537 
1015	 8548.40896404243 
1016	 8627.61076368534 
1017	 8711.18563612752 
1018	 8799.94130586982 
1019	 8897.15687083691 
1020	 8990.64090951061 
1021	 9077.78278805309 
1022	 9159.4315367501 
1023	 9234.91572332915 
1024	 9311.97741051998 
1025	 9392.58698833351 
1026	 9482.06385084727 
1027	 9561.95222647736 
1028	 9639.99453427237 
1029	 9714.34178096665 
1030	 9785.04156405881 
1031	 9846.59509907836 
1032	 9910.36902191199 
1033	 9973.33095279661 
1034	 10029.961375943 
1035	 10080.5156896714 
1036	 10122.1138596014 
1037	 10158.3236818121 
1038	 10192.9141074058 
1039	 10221.034304122 
1040	 10245.3434511966 
1041	 10265.9130487729 
1042	 10284.9384475467 
1043	 10301.4872189452 
1044	 10318.1858281734 
1045	 10335.0885032167 
1046	 10345.0507666305 
1047	 10347.7165952983 
1048	 10349.3276916224 
1049	 10354.9368102504 
1050	 10367.5530942458 
1051	 10374.4724932878 
1052	 10375.8996294391 
1053	 10382.9217694014 
1054	 10389.9515241105 
1055	 10393.8570621329 
1056	 10407.9045756331 
1057	 10427.1677048512 
1058	 10440.4864999221 
1059	 10458.874498341 
1060	 10474.5079876123 
1061	 10494.5777610594 
1062	 10524.6812878063 
1063	 10558.2386452825 
1064	 10601.7227972387 
1065	 10647.1651660104 
1066	 10698.8830211992 
1067	 10758.221426785 
1068	 10822.8891290498 
1069	 10890.0999127258 
1070	 10975.38112577 
1071	 11065.3591414463 
1072	 11160.7706114647 
1073	 11268.6328271546 
1074	 11375.3270668881 
1075	 11494.0884039869 
1076	 11612.4448754731 
1077	 11728.5701815839 
1078	 11862.2295670638 
1079	 11992.6091837063 
1080	 12126.9128415932 
1081	 12264.9275950963 
1082	 12414.9743228317 
1083	 12566.2223187117 
1084	 12722.6745216105 
1085	 12886.6404860482 
1086	 13051.4653689003 
1087	 13218.6502144558 
1088	 13385.4852005221 
1089	 13542.8069612801 
1090	 13704.4109364837 
1091	 13862.4855247677 
1092	 14013.6346251494 
1093	 14168.5964424427 
1094	 14331.9730244484 
1095	 14486.6083435248 
1096	 14638.1350719235 
1097	 14785.4661660771 
1098	 14927.6354106585 
1099	 15063.7296367213 
1100	 15199.2559295434 
1101	 15334.8098211789 
1102	 15465.4634233176 
1103	 15594.3878919878 
1104	 15720.6370272524 
1105	 15841.0842136994 
1106	 15956.9013173158 
1107	 16069.3580927467 
1108	 16179.9592624234 
1109	 16284.4094793535 
1110	 16388.1806105439 
1111	 16491.4534495091 
1112	 16591.2710261246 
1113	 16692.6824160905 
1114	 16785.3874671973 
1115	 16876.0110320618 
1116	 16963.8971698777 
1117	 17037.6034254665 
1118	 17112.8595910822 
1119	 17192.9388229796 
1120	 17275.30243726 
1121	 17354.8486754803 
1122	 17437.3428434543 
1123	 17516.1968365021 
1124	 17587.2672392517 
1125	 17664.309449371 
1126	 17743.2919604327 
1127	 17827.6910616133 
1128	 17910.3134913856 
1129	 17988.5951275091 
1130	 18061.8345587589 
1131	 18130.3578149064 
1132	 18194.3583184534 
1133	 18247.5756592641 
1134	 18311.3131713299 
1135	 18374.9492966603 
1136	 18440.6846921023 
1137	 18517.2418304883 
1138	 18583.0038584003 
1139	 18645.0867835829 
1140	 18701.8732336658 
1141	 18752.7349707245 
1142	 18802.8474830013 
1143	 18840.7311628886 
1144	 18883.6346718446 
1145	 18930.1207577494 
1146	 18969.7993327803 
1147	 19015.3082450331 
1148	 19067.875610841 
1149	 19115.2141609261 
1150	 19160.5161266007 
1151	 19206.8663650865 
1152	 19251.8912463623 
1153	 19298.7982989821 
1154	 19346.7885856643 
1155	 19394.5573230063 
1156	 19444.707636327 
1157	 19491.9943765085 
1158	 19538.9205654622 
1159	 19586.1124389607 
1160	 19629.4264255263 
1161	 19676.1254010319 
1162	 19719.2893638893 
1163	 19761.5566864272 
1164	 19799.7940761261 
1165	 19835.6920401545 
1166	 19869.978445066 
1167	 19899.9077648184 
1168	 19931.2081054541 
1169	 19963.8971759168 
1170	 19992.158330131 
1171	 20013.6207267111 
1172	 20042.2605000545 
1173	 20073.2939394208 
1174	 20100.0686881961 
1175	 20124.5251116398 
1176	 20150.5556166063 
1177	 20173.0871775974 
