Wavelength	spectrum00014.asd
350	 16.0445173660597 
351	 18.636117529119 
352	 18.5717145395447 
353	 18.2525307438165 
354	 20.4347045809098 
355	 19.607996848673 
356	 20.3658710813312 
357	 22.9330077816671 
358	 23.7419553246204 
359	 23.8775772923982 
360	 25.4389614335021 
361	 28.8212231899357 
362	 30.0189749130028 
363	 31.6430528283135 
364	 33.7843099498196 
365	 35.5010747226131 
366	 35.7329527945898 
367	 38.3448208014917 
368	 42.9282196158994 
369	 43.5840788732212 
370	 45.0974319973033 
371	 47.6143838787861 
372	 50.2457483259772 
373	 52.6349167063937 
374	 54.557422701826 
375	 56.5540107413643 
376	 59.4322052525211 
377	 60.9602190519319 
378	 62.812460197755 
379	 65.9017344368625 
380	 68.7667651915358 
381	 71.0918119752704 
382	 74.171639648257 
383	 78.8265880662819 
384	 79.8645088533904 
385	 81.3570060478634 
386	 84.7704503201293 
387	 88.2464561351512 
388	 91.0555177699536 
389	 94.1024605832414 
390	 97.7776083225467 
391	 99.408349894655 
392	 102.816222796043 
393	 107.566584679778 
394	 110.909138409362 
395	 114.478246900286 
396	 117.584376983328 
397	 120.221132006993 
398	 123.992674319475 
399	 128.751880687124 
400	 134.109777418983 
401	 139.47811148117 
402	 144.092980515772 
403	 149.189815767717 
404	 154.724783228959 
405	 159.266821794005 
406	 163.57618562562 
407	 169.801125612253 
408	 178.380894078713 
409	 183.775294178362 
410	 189.57249970115 
411	 196.17957046316 
412	 202.331956103939 
413	 210.498294702268 
414	 218.849511860992 
415	 226.489292656142 
416	 235.309466123832 
417	 244.420312953092 
418	 253.479667964489 
419	 262.441427545294 
420	 271.88086611237 
421	 281.854795465131 
422	 292.324540693215 
423	 303.183511408033 
424	 314.291716437692 
425	 325.708947427621 
426	 337.451739939531 
427	 349.15288313383 
428	 361.38835438994 
429	 374.235671566744 
430	 387.344067360164 
431	 399.794833283902 
432	 412.868073713102 
433	 426.755796183225 
434	 438.237214921072 
435	 451.199102261317 
436	 465.294678634402 
437	 478.595242428464 
438	 491.71739850761 
439	 504.51161528755 
440	 517.039461625781 
441	 529.684531012382 
442	 543.465158725566 
443	 557.147805031324 
444	 569.330044887127 
445	 580.900982566262 
446	 592.134239221637 
447	 603.475533520975 
448	 615.417265651214 
449	 626.170400031349 
450	 636.169335498983 
451	 645.953485040641 
452	 655.05007458204 
453	 663.486486538609 
454	 671.793451319396 
455	 680.475704229729 
456	 686.960561837984 
457	 692.518510318791 
458	 698.363175387049 
459	 704.796883337996 
460	 710.566033962363 
461	 715.614563970951 
462	 720.398763681902 
463	 725.39275486514 
464	 730.119149939636 
465	 734.976455778398 
466	 741.460102764837 
467	 745.72615143141 
468	 748.844081497955 
469	 752.653803622362 
470	 756.528237910162 
471	 761.209940325663 
472	 766.797949617082 
473	 772.832339905346 
474	 778.929685191673 
475	 784.929317805131 
476	 790.91858010843 
477	 797.44142088137 
478	 804.275723072423 
479	 810.551468640403 
480	 815.540143506076 
481	 822.862235499749 
482	 829.912576162704 
483	 835.509227223812 
484	 842.081959428492 
485	 848.73505700841 
486	 855.533141791913 
487	 862.64740190882 
488	 869.237760125385 
489	 876.29700031813 
490	 883.911092306576 
491	 891.025850851229 
492	 900.319794855101 
493	 910.35156750438 
494	 919.552859903246 
495	 929.941094330865 
496	 940.382881593126 
497	 951.184677174126 
498	 963.683555156772 
499	 976.416848382294 
500	 989.777930107684 
501	 1004.44047588214 
502	 1021.0153145358 
503	 1038.71499895964 
504	 1057.04840253298 
505	 1075.58697061194 
506	 1092.81722517348 
507	 1112.68600928447 
508	 1136.56011775009 
509	 1160.45395369047 
510	 1184.40881302022 
511	 1210.04995618622 
512	 1239.01312935331 
513	 1268.51321584937 
514	 1301.22620267259 
515	 1336.98019537167 
516	 1371.91913008471 
517	 1408.47771464226 
518	 1448.53676810594 
519	 1492.65447926239 
520	 1537.15317597933 
521	 1583.51251438306 
522	 1631.43061065016 
523	 1679.24825726321 
524	 1728.88045374102 
525	 1779.80669729096 
526	 1831.23798872012 
527	 1882.99555934201 
528	 1934.44928374431 
529	 1984.94204173852 
530	 2034.11174979448 
531	 2083.93399281528 
532	 2134.13956229369 
533	 2184.20384038584 
534	 2233.73931740288 
535	 2282.47892880469 
536	 2329.53031836989 
537	 2373.97086167179 
538	 2415.51154347251 
539	 2458.24578646917 
540	 2502.39182764449 
541	 2543.05239660517 
542	 2585.14430678286 
543	 2627.36205028733 
544	 2667.93184526367 
545	 2710.00029638523 
546	 2752.11132257731 
547	 2793.59649759596 
548	 2834.57332574319 
549	 2875.5481573777 
550	 2915.30978295137 
551	 2953.52198860891 
552	 2993.57236217374 
553	 3029.73271839251 
554	 3061.67068580648 
555	 3091.94243162793 
556	 3118.80352661331 
557	 3141.94632136032 
558	 3161.88098333723 
559	 3180.43799595813 
560	 3195.64725779158 
561	 3206.574094902 
562	 3212.74603695291 
563	 3213.63040750815 
564	 3213.2987404011 
565	 3211.69538175238 
566	 3203.16109085679 
567	 3192.29703667499 
568	 3180.32797676749 
569	 3167.51688874342 
570	 3153.2978121676 
571	 3142.92642572532 
572	 3137.51958139673 
573	 3134.3801387272 
574	 3132.24747148921 
575	 3132.37939155654 
576	 3136.19212312732 
577	 3144.32170835275 
578	 3152.74498517418 
579	 3163.58573643554 
580	 3181.52754050543 
581	 3200.20285584766 
582	 3216.58670513565 
583	 3230.19386650432 
584	 3244.76384727963 
585	 3251.66237195929 
586	 3254.37868642775 
587	 3259.32771970346 
588	 3260.14907174915 
589	 3261.19143545954 
590	 3263.73177604964 
591	 3264.51450909816 
592	 3263.06818146847 
593	 3259.39474526433 
594	 3253.93354823693 
595	 3247.27904471629 
596	 3241.91167521978 
597	 3238.44941645964 
598	 3235.9422479693 
599	 3234.80809631753 
600	 3234.67487402998 
601	 3234.61525689688 
602	 3232.48875996479 
603	 3230.98164493049 
604	 3228.77856820681 
605	 3223.30134651935 
606	 3219.54900738386 
607	 3215.04260757735 
608	 3208.54382476321 
609	 3202.06856154676 
610	 3197.15663760673 
611	 3191.98174691329 
612	 3184.25624109786 
613	 3175.7504806546 
614	 3168.42383488854 
615	 3163.19698682747 
616	 3159.79933803595 
617	 3155.76522394869 
618	 3152.22937120245 
619	 3150.84966578565 
620	 3151.97052257733 
621	 3155.38887430832 
622	 3159.79714770417 
623	 3163.51522044826 
624	 3169.34938101702 
625	 3177.31944259358 
626	 3186.7617608941 
627	 3196.74106488183 
628	 3205.32516030684 
629	 3213.30396006822 
630	 3222.0719793234 
631	 3229.04751235565 
632	 3233.36405291909 
633	 3235.48200327013 
634	 3237.34419151506 
635	 3234.2724604562 
636	 3228.40438170333 
637	 3222.84001006427 
638	 3217.14033461222 
639	 3208.39244773605 
640	 3197.07865249748 
641	 3186.27464767922 
642	 3174.9789972702 
643	 3163.67281620942 
644	 3152.80960810448 
645	 3142.20636556326 
646	 3133.13018942704 
647	 3125.49800581104 
648	 3118.67556916677 
649	 3112.82278331167 
650	 3109.80157425267 
651	 3109.48161663907 
652	 3108.8048259034 
653	 3111.01124935431 
654	 3113.30823361676 
655	 3113.25140722627 
656	 3116.73475528382 
657	 3120.03825697879 
658	 3122.66329079986 
659	 3126.72348006986 
660	 3129.05701923772 
661	 3132.57256905391 
662	 3139.49848753821 
663	 3148.47482881381 
664	 3155.45211284817 
665	 3162.58180442773 
666	 3174.05224526623 
667	 3185.74657042181 
668	 3198.06333298619 
669	 3211.59310802569 
670	 3226.61345951151 
671	 3245.4295336724 
672	 3266.2068216888 
673	 3286.89342371634 
674	 3309.405110446 
675	 3333.12702340959 
676	 3358.07899407148 
677	 3384.74663545653 
678	 3412.80061742946 
679	 3442.15818743546 
680	 3472.93666752298 
681	 3505.35431017495 
682	 3541.48333212781 
683	 3581.55082584118 
684	 3624.87441706191 
685	 3670.5647197944 
686	 3720.45811816694 
687	 3775.78508471967 
688	 3836.85608717632 
689	 3907.79341503433 
690	 3987.09934936567 
691	 4074.37112002178 
692	 4176.81254923923 
693	 4293.09512196557 
694	 4425.25842358377 
695	 4576.91902856717 
696	 4746.25860891164 
697	 4936.37385178716 
698	 5148.19187237025 
699	 5377.98230863312 
700	 5632.04512218633 
701	 5905.89859009656 
702	 6192.84517775554 
703	 6493.92930299545 
704	 6807.09706905793 
705	 7129.80973346474 
706	 7459.36411911158 
707	 7795.46362311247 
708	 8140.01287479932 
709	 8493.73760465757 
710	 8853.96613407122 
711	 9218.95933109401 
712	 9589.30429239008 
713	 9966.54506119086 
714	 10350.5190482312 
715	 10740.3799280911 
716	 11134.4395288241 
717	 11530.2580460877 
718	 11928.0561948879 
719	 12331.6506850682 
720	 12742.3711760281 
721	 13153.0077112224 
722	 13560.027861217 
723	 13963.2274445872 
724	 14364.2788246024 
725	 14762.0466404007 
726	 15155.0705483513 
727	 15543.6628917349 
728	 15930.6363256572 
729	 16308.3250044533 
730	 16678.3676411494 
731	 17042.8907993936 
732	 17396.140583052 
733	 17742.8955744259 
734	 18082.6256255144 
735	 18411.866152996 
736	 18734.5736823797 
737	 19048.1493386691 
738	 19351.8016067556 
739	 19648.6888301698 
740	 19940.937632964 
741	 20225.9414578571 
742	 20501.3118085458 
743	 20773.4451566034 
744	 21025.7723462395 
745	 21257.6792887144 
746	 21481.8120875025 
747	 21715.8381386236 
748	 21947.9652441961 
749	 22171.8057905132 
750	 22398.0924547979 
751	 22613.0959081402 
752	 22822.9891721421 
753	 23034.9718179173 
754	 23234.2920689376 
755	 23429.9129630562 
756	 23626.9690618316 
757	 23826.0440715317 
758	 24017.4432776631 
759	 24196.8043826131 
760	 24367.3685576836 
761	 24542.8292428813 
762	 24722.7981294896 
763	 24902.155220084 
764	 25074.7849116864 
765	 25239.1097153157 
766	 25395.3906486017 
767	 25546.2318923757 
768	 25695.1158667407 
769	 25838.284891874 
770	 25974.2917342311 
771	 26110.8953212519 
772	 26269.2765928279 
773	 26417.4196241755 
774	 26545.1869254654 
775	 26652.0722164963 
776	 26745.4759402495 
777	 26829.2837378394 
778	 26904.2128407388 
779	 26970.7918295648 
780	 27045.0201090254 
781	 27113.0982506434 
782	 27168.4868785682 
783	 27218.1100623374 
784	 27266.087430685 
785	 27310.1709025795 
786	 27347.7564931723 
787	 27380.4812368195 
788	 27406.9960445991 
789	 27426.0209606558 
790	 27437.4169647961 
791	 27446.8615262873 
792	 27451.4620120152 
793	 27452.1277240462 
794	 27453.5354757077 
795	 27447.7435681848 
796	 27436.1111594084 
797	 27420.2027738999 
798	 27398.3851439409 
799	 27370.0312215435 
800	 27335.1397325874 
801	 27293.9331570065 
802	 27247.0279797016 
803	 27186.475462965 
804	 27119.4456298909 
805	 27061.5214381524 
806	 27000.2819641991 
807	 26934.5616133954 
808	 26867.2853254009 
809	 26804.9487951857 
810	 26728.168678864 
811	 26645.6429788216 
812	 26566.9396983936 
813	 26484.4659518719 
814	 26391.6433372673 
815	 26288.5821985677 
816	 26178.6844476274 
817	 26061.9827919453 
818	 25943.3723717856 
819	 25824.2969308287 
820	 25703.1151517197 
821	 25584.0468935299 
822	 25459.1712426014 
823	 25325.0266851826 
824	 25188.3211314207 
825	 25050.2239420976 
826	 24912.5358524584 
827	 24774.5311324932 
828	 24627.6582846842 
829	 24482.9544202138 
830	 24338.2903231577 
831	 24186.971356474 
832	 24036.8739068868 
833	 23885.1001493477 
834	 23729.3678945619 
835	 23569.5337310319 
836	 23415.3892945807 
837	 23265.923922079 
838	 23118.9018905114 
839	 22973.3514930198 
840	 22827.7206740107 
841	 22684.2298368574 
842	 22543.5052251421 
843	 22398.0375276503 
844	 22256.6688815163 
845	 22117.4116422168 
846	 21975.3820250274 
847	 21836.7166779253 
848	 21702.6230140988 
849	 21570.1044089887 
850	 21434.4561528284 
851	 21305.5304993104 
852	 21174.8344493358 
853	 21040.5969505925 
854	 20912.2718823588 
855	 20779.7299197878 
856	 20644.0824786014 
857	 20509.9842094833 
858	 20384.1815595935 
859	 20261.1201943044 
860	 20141.1183248118 
861	 20023.5105386616 
862	 19898.3575596731 
863	 19764.8914941163 
864	 19628.6831814705 
865	 19496.575247992 
866	 19361.1389525018 
867	 19224.940663579 
868	 19089.0866627831 
869	 18952.6911967172 
870	 18814.0868327528 
871	 18675.5603732077 
872	 18537.6819664931 
873	 18397.9902774416 
874	 18254.5452042272 
875	 18110.1765125556 
876	 17966.821701849 
877	 17822.0467428139 
878	 17678.6653056559 
879	 17537.6021992003 
880	 17397.225082334 
881	 17250.0346503951 
882	 17101.5302404014 
883	 16955.4674377866 
884	 16812.8292621587 
885	 16666.5078167852 
886	 16519.5187457185 
887	 16371.4565714117 
888	 16220.314823492 
889	 16072.1458433792 
890	 15925.2130110441 
891	 15778.4501236864 
892	 15631.9539693243 
893	 15480.8482831018 
894	 15331.5423382759 
895	 15186.3157686916 
896	 15039.3396719004 
897	 14892.5800016557 
898	 14747.7968781565 
899	 14604.8935976667 
900	 14460.119925352 
901	 14317.4309729017 
902	 14175.1107733809 
903	 14030.771312185 
904	 13883.9977645934 
905	 13743.7690029568 
906	 13608.3037944141 
907	 13472.3611482419 
908	 13335.8218229099 
909	 13195.1350335373 
910	 13055.2525131841 
911	 12922.8863356486 
912	 12791.0099147427 
913	 12657.4879989496 
914	 12523.9066545751 
915	 12393.3080668484 
916	 12261.1512471246 
917	 12131.728999327 
918	 12005.1965808309 
919	 11877.6936381839 
920	 11748.7951025991 
921	 11622.3484086457 
922	 11498.5867014604 
923	 11373.5480922323 
924	 11250.1324329665 
925	 11124.5773407375 
926	 10997.239172876 
927	 10874.7629020776 
928	 10750.8379275668 
929	 10626.7886992573 
930	 10502.9660467318 
931	 10375.8309804138 
932	 10253.1533218471 
933	 10131.7646046694 
934	 10008.7880544242 
935	 9887.20267641011 
936	 9769.32145161375 
937	 9653.28534223186 
938	 9536.88519711377 
939	 9420.26795816796 
940	 9303.21938815949 
941	 9187.86309237108 
942	 9074.94502858317 
943	 8959.68936277205 
944	 8842.77933685889 
945	 8726.02931979406 
946	 8611.01126525014 
947	 8496.85211763275 
948	 8384.02399487023 
949	 8269.36069627795 
950	 8151.60752948309 
951	 8040.93960644703 
952	 7927.05928194512 
953	 7813.32761641769 
954	 7705.55597551328 
955	 7595.44707171979 
956	 7484.47632883752 
957	 7374.83062184769 
958	 7268.22277145289 
959	 7163.29706694568 
960	 7059.3873866163 
961	 6955.55204710676 
962	 6851.43932695602 
963	 6749.33946323154 
964	 6647.30306725906 
965	 6546.59421370925 
966	 6449.10241257656 
967	 6352.36138598534 
968	 6252.98348014336 
969	 6154.01928490596 
970	 6059.93522006917 
971	 5965.98715286275 
972	 5873.88901637377 
973	 5781.58940581462 
974	 5687.22725543847 
975	 5598.19175049004 
976	 5509.28206883928 
977	 5420.3644648675 
978	 5333.30455640648 
979	 5245.86903500611 
980	 5161.38616349284 
981	 5077.26574569854 
982	 4990.71175232355 
983	 4909.86140155359 
984	 4828.89313596672 
985	 4748.71446794788 
986	 4671.38221448448 
987	 4591.00081721 
988	 4512.14471943567 
989	 4434.32504158084 
990	 4356.42489191689 
991	 4282.80294169227 
992	 4210.10546340828 
993	 4137.24714038057 
994	 4064.34740533314 
995	 3992.29258243327 
996	 3919.33719852257 
997	 3848.48048744854 
998	 3781.43112052624 
999	 3712.6412608198 
1000	 3645.26054501866 
1001	 7985.96014797351 
1002	 8027.95344373141 
1003	 8070.10696884336 
1004	 8109.20350841529 
1005	 8152.03576026136 
1006	 8200.5715123844 
1007	 8253.98660847012 
1008	 8312.60877333535 
1009	 8370.26702543244 
1010	 8427.85688934559 
1011	 8490.01010637308 
1012	 8557.99936263412 
1013	 8632.45629779833 
1014	 8708.14204377019 
1015	 8790.47129740903 
1016	 8870.26165509414 
1017	 8948.25335617602 
1018	 9032.91550140003 
1019	 9120.78966313889 
1020	 9207.0684768522 
1021	 9297.56963370803 
1022	 9389.49398118621 
1023	 9478.96535328715 
1024	 9568.45491049457 
1025	 9655.30896158108 
1026	 9743.42793359307 
1027	 9824.36033762731 
1028	 9899.49636398636 
1029	 9974.51625632386 
1030	 10048.584594987 
1031	 10122.5628644787 
1032	 10188.0289433191 
1033	 10247.1763856258 
1034	 10304.7768340219 
1035	 10356.6040024882 
1036	 10406.7502533239 
1037	 10449.4589828746 
1038	 10478.092021958 
1039	 10502.3936795859 
1040	 10525.9135010528 
1041	 10542.6123352456 
1042	 10561.0398073965 
1043	 10586.490776296 
1044	 10603.2181473461 
1045	 10610.8127473622 
1046	 10619.8728310491 
1047	 10625.9302276621 
1048	 10630.174612485 
1049	 10638.8237751374 
1050	 10644.5719636605 
1051	 10648.0351970277 
1052	 10657.1757754329 
1053	 10668.3535310409 
1054	 10681.5099576766 
1055	 10699.3478652058 
1056	 10715.7347323596 
1057	 10729.3937393743 
1058	 10744.6269419994 
1059	 10757.7925635172 
1060	 10780.4303140499 
1061	 10812.851330127 
1062	 10848.8739427467 
1063	 10888.7700816963 
1064	 10936.6827335249 
1065	 10992.6882089451 
1066	 11046.7323027489 
1067	 11105.4646481188 
1068	 11169.6924201767 
1069	 11240.5543380572 
1070	 11313.5875726196 
1071	 11397.8857131816 
1072	 11498.9625126881 
1073	 11602.4666643481 
1074	 11709.2091505308 
1075	 11824.3070763937 
1076	 11936.1825955666 
1077	 12059.5359439438 
1078	 12196.7821500915 
1079	 12332.8931611514 
1080	 12475.1119356582 
1081	 12627.262190306 
1082	 12780.4135911055 
1083	 12930.5915591256 
1084	 13091.354320743 
1085	 13265.2210108583 
1086	 13441.4253834515 
1087	 13614.3392793146 
1088	 13789.8156659714 
1089	 13953.9383929759 
1090	 14111.1297669084 
1091	 14278.1694713205 
1092	 14438.6080060683 
1093	 14595.0878030132 
1094	 14750.0962941059 
1095	 14904.5145465584 
1096	 15052.8884436714 
1097	 15202.1523613234 
1098	 15355.5843624643 
1099	 15502.5752571109 
1100	 15645.6655586891 
1101	 15782.3740394546 
1102	 15913.2362975103 
1103	 16037.48576363 
1104	 16160.7421740239 
1105	 16284.9006775422 
1106	 16404.2702635134 
1107	 16523.7653759106 
1108	 16636.9791369884 
1109	 16744.0350985877 
1110	 16848.2309479777 
1111	 16946.293582187 
1112	 17045.5138880454 
1113	 17147.6701225887 
1114	 17244.932102314 
1115	 17336.3595654818 
1116	 17427.9268136815 
1117	 17514.1618425968 
1118	 17595.1761893848 
1119	 17676.2204301995 
1120	 17756.5840003022 
1121	 17837.1675726473 
1122	 17913.5424251687 
1123	 17993.9620194518 
1124	 18078.7405899471 
1125	 18160.0849328936 
1126	 18241.3933404924 
1127	 18319.9968684557 
1128	 18399.0410061225 
1129	 18481.4229274237 
1130	 18562.0585858428 
1131	 18636.511010225 
1132	 18699.4433351109 
1133	 18746.7271216093 
1134	 18808.0689493259 
1135	 18863.7193170253 
1136	 18926.9639456712 
1137	 19004.5670350793 
1138	 19071.8355086157 
1139	 19138.8229466842 
1140	 19197.7476533543 
1141	 19250.9897073002 
1142	 19304.3557366326 
1143	 19348.5753212316 
1144	 19389.0048072735 
1145	 19429.1940894977 
1146	 19470.9255956697 
1147	 19513.9087400297 
1148	 19555.4972929514 
1149	 19601.1491449804 
1150	 19651.3932630599 
1151	 19698.7301324359 
1152	 19746.4354410574 
1153	 19794.1674129707 
1154	 19840.708376302 
1155	 19888.4746277726 
1156	 19936.3929856435 
1157	 19988.4450992733 
1158	 20035.7269895253 
1159	 20079.2497740207 
1160	 20118.9817342036 
1161	 20157.808494294 
1162	 20200.1057229098 
1163	 20246.6826776867 
1164	 20285.7334012445 
1165	 20323.3999484549 
1166	 20359.3956871013 
1167	 20389.2247260959 
1168	 20421.0399424862 
1169	 20455.7063381524 
1170	 20487.6337186617 
1171	 20517.6134625591 
1172	 20544.9339674388 
1173	 20575.4766999942 
1174	 20602.4919148475 
1175	 20625.8227839278 
1176	 20644.957302639 
1177	 20668.3861478168 
1178	 20689.4733019894 
1179	 20712.108238262 
1180	 20741.8131053908 
1181	 20762.8561296029 
1182	 20778.2507017077 
1183	 20793.9539353159 
1184	 20802.9481625721 
1185	 20818.3338592476 
1186	 20836.4258223493 
1187	 20854.860976147 
1188	 20875.9223721212 
1189	 20897.544937063 
1190	 20920.5204303043 
1191	 20944.6184475882 
1192	 20966.0295006858 
1193	 20988.6549016526 
1194	 21009.7733062868 
1195	 21024.3202069533 
1196	 21047.9269052801 
1197	 21074.5364211804 
1198	 21104.1369561014 
1199	 21141.7898139373 
1200	 21175.0968195563 
1201	 21208.907538646 
1202	 21242.6190127955 
1203	 21275.9249100942 
1204	 21306.1686405819 
1205	 21338.6367566848 
1206	 21377.3876794628 
1207	 21415.9874176382 
1208	 21459.5484223942 
1209	 21495.9589670771 
1210	 21532.0793686002 
1211	 21565.0070685856 
1212	 21589.0885820021 
1213	 21622.2233563705 
1214	 21656.6367134585 
1215	 21694.8511094864 
1216	 21741.5958841432 
1217	 21783.004368414 
1218	 21824.0996316328 
1219	 21865.1002207684 
1220	 21909.7714842571 
1221	 21943.540176087 
1222	 21978.9706931939 
1223	 22014.5963181112 
1224	 22046.5539563057 
1225	 22074.4286203259 
1226	 22101.435878747 
1227	 22127.0324000611 
1228	 22151.1427255182 
1229	 22172.3157916866 
1230	 22192.8573469076 
1231	 22216.3920746044 
1232	 22231.6867056694 
1233	 22241.2754651089 
1234	 22250.0162606321 
1235	 22250.235641072 
1236	 22254.427660633 
1237	 22259.4312915513 
1238	 22265.9091369096 
1239	 22270.2482918274 
1240	 22276.5766603242 
1241	 22277.3621348616 
1242	 22275.2870186055 
1243	 22271.5230430718 
1244	 22264.8266133106 
1245	 22256.7746784941 
1246	 22246.7871569866 
1247	 22235.4816825282 
1248	 22220.2967817793 
1249	 22207.3146082426 
1250	 22194.4650815968 
1251	 22181.1689003319 
1252	 22168.1647292775 
1253	 22155.3630814411 
1254	 22142.4384700998 
1255	 22129.9455870998 
1256	 22113.3395231624 
1257	 22093.7938413303 
1258	 22079.1721053342 
1259	 22063.8288320729 
1260	 22048.6157889037 
1261	 22038.6838032701 
1262	 22023.8777890069 
1263	 22008.456834024 
1264	 21986.3951726448 
1265	 21967.4637712 
1266	 21934.5404587256 
1267	 21883.8141944401 
1268	 21840.4374470922 
1269	 21791.7335607818 
1270	 21743.9670832963 
1271	 21700.3728035354 
1272	 21657.495573008 
1273	 21603.5493407268 
1274	 21543.3780947611 
1275	 21481.3856632648 
1276	 21413.0166610361 
1277	 21343.8562639972 
1278	 21271.5441531654 
1279	 21199.694840754 
1280	 21123.5961797908 
1281	 21050.3994950783 
1282	 20979.2773956325 
1283	 20906.383391381 
1284	 20827.5829469356 
1285	 20758.5482534048 
1286	 20690.8105012872 
1287	 20629.3979949885 
1288	 20576.058307983 
1289	 20526.8267584972 
1290	 20483.8271526657 
1291	 20441.8881298438 
1292	 20402.3591703318 
1293	 20363.7636249383 
1294	 20336.0870403721 
1295	 20312.7566473548 
1296	 20295.0727280151 
1297	 20290.4633977605 
1298	 20281.2334555752 
1299	 20270.548084538 
1300	 20265.0713900223 
1301	 20261.0563849486 
1302	 20263.6411161976 
1303	 20271.7623991664 
1304	 20282.1308187738 
1305	 20298.3896424523 
1306	 20315.3871997915 
1307	 20333.4343595524 
1308	 20354.8447013818 
1309	 20384.7914862336 
1310	 20410.4021792356 
1311	 20433.4543866791 
1312	 20456.6071647954 
1313	 20479.4409272098 
1314	 20494.8508290656 
1315	 20520.7313108147 
1316	 20552.9011754619 
1317	 20584.0732865366 
1318	 20623.1055478399 
1319	 20652.9099371313 
1320	 20681.560347941 
1321	 20705.2593547026 
1322	 20718.8030168825 
1323	 20737.0181961749 
1324	 20756.027067645 
1325	 20772.6102598189 
1326	 20786.8021653415 
1327	 20807.0710539043 
1328	 20820.110519224 
1329	 20829.9967404715 
1330	 20838.4638627185 
1331	 20843.9862053154 
1332	 20850.6159590928 
1333	 20855.6999145795 
1334	 20860.3583545108 
1335	 20867.0910460372 
1336	 20869.0354682658 
1337	 20870.2100105465 
1338	 20865.7141191864 
1339	 20856.7942855664 
1340	 20845.7222377829 
1341	 20830.5510899611 
1342	 20812.2906449237 
1343	 20797.5697364692 
1344	 20769.9404505399 
1345	 20735.9476439985 
1346	 20693.388630009 
1347	 20644.234467134 
1348	 20580.73737741 
1349	 20512.280007902 
1350	 20431.9750707386 
1351	 20340.9740757 
1352	 20232.0484037952 
1353	 20132.1890938194 
1354	 20023.3596816564 
1355	 19922.6314275983 
1356	 19829.9622331376 
1357	 19728.7782023254 
1358	 19620.7746858755 
1359	 19520.9081847221 
1360	 19400.197943827 
1361	 19323.4615022338 
1362	 19258.1730548692 
1363	 19226.1749634196 
1364	 19250.2989845727 
1365	 19256.7549261716 
1366	 19282.3238471076 
1367	 19299.565781637 
1368	 19310.0009953527 
1369	 19316.2266127462 
1370	 19336.2081390201 
1371	 19357.763826793 
1372	 19370.6591162235 
1373	 19402.5955724351 
1374	 19375.2882839574 
1375	 19340.8999289112 
1376	 19239.0659088692 
1377	 19081.3431217729 
1378	 18902.3495968706 
1379	 18644.4148127122 
1380	 18440.9116506371 
1381	 18202.6464923783 
1382	 18035.7456233005 
1383	 17924.7372469172 
1384	 17813.0912818302 
1385	 17765.1253519258 
1386	 17668.0597313399 
1387	 17575.5162561159 
1388	 17442.2613467602 
1389	 17278.8283917089 
1390	 17086.3844735162 
1391	 16874.9556404768 
1392	 16640.4432905799 
1393	 16401.2843290818 
1394	 16170.4152198592 
1395	 15957.2871295533 
1396	 15752.7534873407 
1397	 15555.9040827423 
1398	 15375.7976597194 
1399	 15195.1248806162 
1400	 15016.7247947518 
1401	 14845.0241233227 
1402	 14682.1782818821 
1403	 14519.9594021023 
1404	 14356.1164568544 
1405	 14205.3716730542 
1406	 14055.5313713181 
1407	 13926.0354798497 
1408	 13812.1697171335 
1409	 13706.4301053686 
1410	 13624.9084930846 
1411	 13534.8709283948 
1412	 13447.8239896724 
1413	 13362.2544529532 
1414	 13272.9750925744 
1415	 13188.4952066701 
1416	 13115.1197626091 
1417	 13046.5144003479 
1418	 12979.3668045071 
1419	 12917.7575927907 
1420	 12864.4171348745 
1421	 12817.2508640541 
1422	 12769.0248166372 
1423	 12730.0304836528 
1424	 12688.1158821393 
1425	 12640.5305068915 
1426	 12601.1878650709 
1427	 12566.9601536442 
1428	 12535.3054694742 
1429	 12506.0371898794 
1430	 12482.2085637651 
1431	 12462.8707947588 
1432	 12447.5225936259 
1433	 12436.5852426806 
1434	 12428.632716567 
1435	 12428.8075718079 
1436	 12425.5716157979 
1437	 12424.3978578878 
1438	 12420.9330535559 
1439	 12414.353283361 
1440	 12408.3142130289 
1441	 12402.6136680701 
1442	 12403.5077348308 
1443	 12408.1815633643 
1444	 12415.0278722212 
1445	 12423.2557337678 
1446	 12436.6240227326 
1447	 12443.6120796347 
1448	 12448.2040359405 
1449	 12456.2532660348 
1450	 12460.9673822191 
1451	 12472.2226374303 
1452	 12490.0585319002 
1453	 12504.4773098981 
1454	 12520.1303086825 
1455	 12534.7638984367 
1456	 12550.5522008733 
1457	 12562.8738175884 
1458	 12571.7254271062 
1459	 12583.1037959346 
1460	 12591.0080366698 
1461	 12603.3571984026 
1462	 12622.4214615942 
1463	 12637.0426944671 
1464	 12650.3174970892 
1465	 12664.7179668021 
1466	 12674.8552789652 
1467	 12689.9864130099 
1468	 12709.4461708684 
1469	 12730.1458898427 
1470	 12744.9011905218 
1471	 12765.132522421 
1472	 12789.4375863566 
1473	 12813.9390956779 
1474	 12842.3573605358 
1475	 12880.3132089172 
1476	 12908.7626365617 
1477	 12932.3503313996 
1478	 12960.66367192 
1479	 12987.2851641639 
1480	 13018.9261176694 
1481	 13056.3701594068 
1482	 13090.2886228521 
1483	 13125.2172166411 
1484	 13158.9290112987 
1485	 13192.7906219414 
1486	 13222.9114066751 
1487	 13250.991743185 
1488	 13278.8448835734 
1489	 13301.3010639085 
1490	 13328.5577560674 
1491	 13361.2892501301 
1492	 13388.4787745082 
1493	 13412.9572689237 
1494	 13440.0981081492 
1495	 13462.8862511248 
1496	 13490.3691241409 
1497	 13527.5613324267 
1498	 13556.8354726708 
1499	 13580.3905801215 
1500	 13608.4983771168 
1501	 13639.1928998884 
1502	 13662.5297161084 
1503	 13688.624557301 
1504	 13714.5641010989 
1505	 13734.6391921184 
1506	 13757.6795296644 
1507	 13782.1267624155 
1508	 13810.884018898 
1509	 13835.5003061379 
1510	 13859.1861336551 
1511	 13882.4046454044 
1512	 13904.9496013306 
1513	 13926.5652906603 
1514	 13946.1712164046 
1515	 13967.6024830421 
1516	 13989.802810818 
1517	 14010.240647676 
1518	 14032.1448318929 
1519	 14051.2260742048 
1520	 14064.5544550554 
1521	 14084.0711840807 
1522	 14106.5416034242 
1523	 14127.070413881 
1524	 14152.428074302 
1525	 14171.6251531645 
1526	 14184.2185708456 
1527	 14200.5349764036 
1528	 14217.1710783589 
1529	 14232.58473029 
1530	 14250.2183832223 
1531	 14264.5616965013 
1532	 14273.3136697334 
1533	 14285.7783134653 
1534	 14300.6158481214 
1535	 14312.9517080555 
1536	 14326.4029075685 
1537	 14338.3934804862 
1538	 14347.7940208857 
1539	 14356.3132496595 
1540	 14365.3250926613 
1541	 14370.1247783384 
1542	 14378.7223816656 
1543	 14391.7070911734 
1544	 14403.3559846684 
1545	 14419.9046301635 
1546	 14430.6976513076 
1547	 14438.8366566945 
1548	 14445.1178170544 
1549	 14450.3602263328 
1550	 14452.3756744963 
1551	 14448.0505677718 
1552	 14452.5761879812 
1553	 14457.0877086063 
1554	 14466.7057128953 
1555	 14487.1823236203 
1556	 14495.2802861731 
1557	 14499.9911943477 
1558	 14504.9064430528 
1559	 14500.8958365318 
1560	 14507.0973090861 
1561	 14522.5807694669 
1562	 14528.5004971438 
1563	 14535.1616197109 
1564	 14537.3665122336 
1565	 14529.4689148881 
1566	 14528.8467467891 
1567	 14531.1078067238 
1568	 14531.9078400364 
1569	 14536.0968171886 
1570	 14535.5804781673 
1571	 14533.1293322323 
1572	 14528.0925425427 
1573	 14515.5533397549 
1574	 14510.5690048566 
1575	 14509.0852966391 
1576	 14505.0032366174 
1577	 14503.2946927497 
1578	 14501.7639667389 
1579	 14496.3656406666 
1580	 14494.2118085883 
1581	 14499.2693011665 
1582	 14498.3527816417 
1583	 14493.1549739374 
1584	 14490.1584478634 
1585	 14485.460833298 
1586	 14481.2425012882 
1587	 14482.2819943927 
1588	 14477.2942467342 
1589	 14466.598627215 
1590	 14457.7121010499 
1591	 14441.5391423739 
1592	 14433.4045926625 
1593	 14434.1193839399 
1594	 14431.1621167952 
1595	 14433.9731105837 
1596	 14432.1053936476 
1597	 14423.4681357585 
1598	 14406.99522676 
1599	 14397.1556987823 
1600	 14383.987696442 
1601	 14375.9017194416 
1602	 14373.4648905201 
1603	 14366.0951791249 
1604	 14359.1590116202 
1605	 14347.578959895 
1606	 14331.8931640433 
1607	 14320.0683763231 
1608	 14307.0011520621 
1609	 14293.7647064976 
1610	 14285.5310176182 
1611	 14267.8148168503 
1612	 14243.0139881367 
1613	 14222.0643851047 
1614	 14197.1458087346 
1615	 14177.8323240802 
1616	 14163.0151184609 
1617	 14145.0729907575 
1618	 14127.1617111655 
1619	 14109.8137955893 
1620	 14093.4190776149 
1621	 14072.9824144419 
1622	 14052.3615066154 
1623	 14029.5826682094 
1624	 14001.8446871208 
1625	 13976.491934121 
1626	 13952.3195997729 
1627	 13926.4573871083 
1628	 13900.1921074068 
1629	 13872.5093519927 
1630	 13844.512870926 
1631	 13813.6350827412 
1632	 13778.4047505198 
1633	 13747.2371123962 
1634	 13716.2639892619 
1635	 13685.586946841 
1636	 13660.4755096113 
1637	 13626.9416594646 
1638	 13588.0207003504 
1639	 13550.5182832184 
1640	 13507.9958241736 
1641	 13469.210696986 
1642	 13430.8582493982 
1643	 13396.3032616133 
1644	 13367.2057539926 
1645	 13332.9788144455 
1646	 13300.5822365402 
1647	 13263.9251471046 
1648	 13219.263107153 
1649	 13180.6245667449 
1650	 13147.4513883262 
1651	 13106.8702838007 
1652	 13064.0375916761 
1653	 13020.5286845577 
1654	 12970.101809318 
1655	 12924.4587392529 
1656	 12883.6758250476 
1657	 12839.6034257024 
1658	 12799.196557949 
1659	 12748.7819288243 
1660	 12689.7615570187 
1661	 12633.6127565273 
1662	 12569.5426997234 
1663	 12512.848525133 
1664	 12464.8996932387 
1665	 12410.3980269365 
1666	 12350.9609556947 
1667	 12297.869216215 
1668	 12243.4090039395 
1669	 12194.447867881 
1670	 12153.974927858 
1671	 12111.3927330492 
1672	 12068.4268809614 
1673	 12027.675638495 
1674	 11991.5579754613 
1675	 11950.8701244949 
1676	 11908.8506295679 
1677	 11867.2260346589 
1678	 11824.1489155246 
1679	 11779.3764599949 
1680	 11734.6526407095 
1681	 11689.6101932098 
1682	 11643.8057953165 
1683	 11594.6442080382 
1684	 11543.1587574389 
1685	 11493.9759120059 
1686	 11442.3293469655 
1687	 11391.0808239188 
1688	 11342.5147184033 
1689	 11292.5943291677 
1690	 11235.5955037653 
1691	 11188.3030874289 
1692	 11149.5929612371 
1693	 11106.9076487719 
1694	 11069.5058113459 
1695	 11028.1300430756 
1696	 10980.8876882676 
1697	 10936.2585274826 
1698	 10891.9117487672 
1699	 10847.5664367445 
1700	 10802.6133109162 
1701	 10759.5374389039 
1702	 10719.452535737 
1703	 10676.6024961933 
1704	 10633.3390670126 
1705	 10591.6305104 
1706	 10547.4173851219 
1707	 10504.7876165281 
1708	 10464.8110099194 
1709	 10424.6569230652 
1710	 10385.0520086526 
1711	 10345.1387174397 
1712	 10306.3169271251 
1713	 10264.6832836402 
1714	 10221.4097099789 
1715	 10178.6065909812 
1716	 10134.5576262792 
1717	 10092.3765120393 
1718	 10051.868973069 
1719	 10008.5995801183 
1720	 9965.04774059304 
1721	 9918.45533610964 
1722	 9867.63916176077 
1723	 9819.79725321679 
1724	 9770.07840938095 
1725	 9725.40996101818 
1726	 9684.76899302325 
1727	 9644.30190821898 
1728	 9607.39937128515 
1729	 9569.64991524115 
1730	 9531.90510837676 
1731	 9492.70479197475 
1732	 9451.63931389947 
1733	 9412.61080627872 
1734	 9373.87105440546 
1735	 9336.88575772378 
1736	 9303.59787517239 
1737	 9266.66068426743 
1738	 9226.09584176988 
1739	 9191.67330924126 
1740	 9160.95864196201 
1741	 9125.85731236197 
1742	 9093.30836396277 
1743	 9055.83236198482 
1744	 9012.33784366268 
1745	 8966.77482218937 
1746	 8927.20627007506 
1747	 8885.15586468705 
1748	 8838.12867428829 
1749	 8791.96276809269 
1750	 8745.90258143182 
1751	 8701.24931326586 
1752	 8658.24987251334 
1753	 8619.01689684768 
1754	 8582.08420616869 
1755	 8545.79413044063 
1756	 8507.62904798808 
1757	 8465.97168096169 
1758	 8422.8989752635 
1759	 8377.81684531024 
1760	 8332.23957382013 
1761	 8290.04939779962 
1762	 8247.3108000612 
1763	 8200.60620772441 
1764	 8157.9031315306 
1765	 8118.56026117442 
1766	 8080.41654142625 
1767	 8041.57930019948 
1768	 8002.76119759978 
1769	 7963.68996615811 
1770	 7918.59889685228 
1771	 7883.56363063581 
1772	 7846.19345198292 
1773	 7800.73516510963 
1774	 7761.69539699935 
1775	 7717.17379407076 
1776	 7681.09342442134 
1777	 7647.05369544887 
1778	 7607.40310539142 
1779	 7572.41852070653 
1780	 7529.54449615068 
1781	 7488.27510023288 
1782	 7450.14257687993 
1783	 7412.20669699114 
1784	 7375.49058692866 
1785	 7341.27666117248 
1786	 7304.66614787216 
1787	 7268.9617511744 
1788	 7231.73865716397 
1789	 7191.49466795003 
1790	 7152.8208934863 
1791	 7113.42693721779 
1792	 7074.38831215905 
1793	 7037.65612610566 
1794	 6998.58806051764 
1795	 6960.38448102101 
1796	 6913.72059111372 
1797	 6869.89084077577 
1798	 6827.34985879324 
1799	 6779.56985343775 
1800	 6737.68995001737 
1801	 11734.1563095894 
1802	 11869.9953604587 
1803	 11999.1888941548 
1804	 12129.7032186731 
1805	 12255.3342784245 
1806	 12372.7358816732 
1807	 12487.7485116355 
1808	 12582.8712217048 
1809	 12656.3654167599 
1810	 12734.7091961663 
1811	 12802.1839498395 
1812	 12867.261198404 
1813	 12931.7727879975 
1814	 12994.4539476277 
1815	 13029.6860341782 
1816	 13070.3245527932 
1817	 13110.1709561615 
1818	 13148.4710326173 
1819	 13202.834452817 
1820	 13280.2683273962 
1821	 13341.6707875119 
1822	 13404.4613834615 
1823	 13468.1259021353 
1824	 13517.2218244176 
1825	 13568.2581554605 
1826	 13620.4221613897 
1827	 13674.3695035457 
1828	 13727.9632391092 
1829	 13795.9857013683 
1830	 13834.2504804873 
1831	 13863.911067175 
1832	 13884.3790887206 
1833	 13867.6544987849 
1834	 13846.9510459048 
1835	 13821.3683775358 
1836	 13795.2494493884 
1837	 13793.2224799206 
1838	 13825.4543646217 
1839	 13888.50134084 
1840	 14014.0778007678 
1841	 14098.9402118148 
1842	 14213.1112413643 
1843	 14299.2322325948 
1844	 14297.6504170919 
1845	 14306.1688987819 
1846	 14316.4616396362 
1847	 14317.9891932918 
1848	 14345.3655379169 
1849	 14429.7789533415 
1850	 14452.2394711176 
1851	 14455.8946790301 
1852	 14451.9941274859 
1853	 14433.5241608348 
1854	 14401.7220851488 
1855	 14361.7698413004 
1856	 14332.3918338332 
1857	 14288.8168752329 
1858	 14240.2385110033 
1859	 14204.1238788816 
1860	 14206.3587727075 
1861	 14149.2801079057 
1862	 14089.0501382835 
1863	 13990.4398079404 
1864	 13822.7930105767 
1865	 13623.6912204512 
1866	 13358.7009814789 
1867	 13074.8131552089 
1868	 12788.8695016092 
1869	 12497.0520022847 
1870	 12264.9939152613 
1871	 12066.0414753089 
1872	 11904.5978305836 
1873	 11789.4282944445 
1874	 11701.258447713 
1875	 11621.1523529832 
1876	 11543.2144970999 
1877	 11447.3259073932 
1878	 11333.8109064666 
1879	 11190.928591561 
1880	 11020.4369136468 
1881	 10826.234590135 
1882	 10597.017675402 
1883	 10362.3218817208 
1884	 10123.8421457706 
1885	 9880.47942540967 
1886	 9659.74186903744 
1887	 9438.61380171211 
1888	 9214.25587846335 
1889	 9007.51510822016 
1890	 8818.95076620045 
1891	 8641.270029451 
1892	 8479.26835852271 
1893	 8333.39677455686 
1894	 8182.94938345344 
1895	 8021.27668797685 
1896	 7856.84387732448 
1897	 7688.96727336133 
1898	 7526.70633841914 
1899	 7383.51549378196 
1900	 7257.72810538055 
1901	 7148.7667669078 
1902	 7055.64771630763 
1903	 6984.96203135014 
1904	 6918.58454938038 
1905	 6861.37831564315 
1906	 6823.33324311367 
1907	 6791.22068936171 
1908	 6779.99133112662 
1909	 6777.32326224014 
1910	 6747.88138544994 
1911	 6710.22851258862 
1912	 6672.35560052884 
1913	 6637.4363504818 
1914	 6592.7432907148 
1915	 6567.61057644433 
1916	 6553.69780104602 
1917	 6530.07562026502 
1918	 6511.49058568123 
1919	 6499.26363916552 
1920	 6482.28667982217 
1921	 6481.1256611198 
1922	 6484.06788120542 
1923	 6487.3507351044 
1924	 6493.07277704357 
1925	 6506.40649337902 
1926	 6513.55142600144 
1927	 6525.74235847817 
1928	 6537.00249094746 
1929	 6547.54869847692 
1930	 6561.8187951046 
1931	 6574.52081042716 
1932	 6586.79145691765 
1933	 6593.58075240283 
1934	 6598.01597396761 
1935	 6606.95388421533 
1936	 6612.44286063012 
1937	 6621.47087391596 
1938	 6639.75900549665 
1939	 6662.12873152119 
1940	 6679.16398512958 
1941	 6698.22592982764 
1942	 6715.82768252508 
1943	 6725.45324787534 
1944	 6750.82266621212 
1945	 6779.372622831 
1946	 6799.82986671904 
1947	 6820.10686122794 
1948	 6844.41775126946 
1949	 6867.64522965279 
1950	 6881.71929008678 
1951	 6899.93806207002 
1952	 6930.16146503438 
1953	 6943.79971333608 
1954	 6952.17932987377 
1955	 6981.89004767047 
1956	 6996.30810108694 
1957	 7007.12330866481 
1958	 7033.40060222805 
1959	 7057.26980966743 
1960	 7074.48790866288 
1961	 7104.25783170505 
1962	 7140.67875107712 
1963	 7166.06047501677 
1964	 7190.03942897649 
1965	 7206.80506333384 
1966	 7223.07849129989 
1967	 7245.0253082929 
1968	 7268.98870423678 
1969	 7288.67427032404 
1970	 7307.51905661316 
1971	 7326.06934788842 
1972	 7346.13005473589 
1973	 7360.54505108136 
1974	 7383.21943023106 
1975	 7420.19387035784 
1976	 7447.6592607633 
1977	 7469.53289443643 
1978	 7490.04476660357 
1979	 7502.2187974107 
1980	 7509.67472112242 
1981	 7525.26836091145 
1982	 7549.25658886671 
1983	 7568.81407809938 
1984	 7588.61575696048 
1985	 7609.12512397737 
1986	 7630.61001538433 
1987	 7647.54958569622 
1988	 7664.1180792091 
1989	 7679.86071014973 
1990	 7704.68891141927 
1991	 7724.67278044591 
1992	 7752.55442568237 
1993	 7786.89057898453 
1994	 7807.97502678269 
1995	 7822.24757366471 
1996	 7839.62062731157 
1997	 7844.58573130936 
1998	 7859.53416625453 
1999	 7883.19848989438 
2000	 7898.20649460645 
2001	 7915.40327362951 
2002	 7942.4546093923 
2003	 7965.37886748436 
2004	 7985.04326762328 
2005	 8005.62420156507 
2006	 8027.90374145519 
2007	 8046.01552219769 
2008	 8060.19467848701 
2009	 8077.00567868061 
2010	 8091.17192735293 
2011	 8106.1476062783 
2012	 8121.88648163053 
2013	 8141.51632766284 
2014	 8155.27641718055 
2015	 8169.4908706644 
2016	 8179.4411533189 
2017	 8185.37860804119 
2018	 8190.64352994321 
2019	 8188.62501662788 
2020	 8191.58115184722 
2021	 8191.91269766163 
2022	 8199.94031298017 
2023	 8216.35490831303 
2024	 8229.34452967655 
2025	 8248.84743582048 
2026	 8255.88108183446 
2027	 8259.82178307199 
2028	 8263.71832204865 
2029	 8262.46497135469 
2030	 8267.24938357449 
2031	 8270.11672123934 
2032	 8266.66653057576 
2033	 8264.53932883133 
2034	 8261.31179045177 
2035	 8253.90939872802 
2036	 8242.98713745329 
2037	 8235.60298483535 
2038	 8224.45785854781 
2039	 8219.32160922903 
2040	 8219.49949792661 
2041	 8218.77092802613 
2042	 8225.45609907408 
2043	 8220.79047976457 
2044	 8204.2471403582 
2045	 8191.6642504827 
2046	 8175.43168152523 
2047	 8158.78452307466 
2048	 8146.0810070594 
2049	 8143.74031267207 
2050	 8135.35440926578 
2051	 8118.75189170485 
2052	 8110.13627003788 
2053	 8107.40796478573 
2054	 8100.29799233806 
2055	 8098.22378971218 
2056	 8100.42808097905 
2057	 8105.30377042725 
2058	 8106.69452077985 
2059	 8094.68168518541 
2060	 8097.07403318443 
2061	 8097.62679679559 
2062	 8091.84937828514 
2063	 8095.895518818 
2064	 8117.66831000225 
2065	 8118.1254718564 
2066	 8109.52121184595 
2067	 8104.40313112881 
2068	 8093.46452051072 
2069	 8077.33472408707 
2070	 8067.95728060574 
2071	 8064.6775014663 
2072	 8058.61760998513 
2073	 8046.15386623047 
2074	 8039.84243738919 
2075	 8037.91091747902 
2076	 8039.07346607957 
2077	 8046.10870309506 
2078	 8051.35518274935 
2079	 8064.83816352488 
2080	 8063.69339379424 
2081	 8049.4649074428 
2082	 8045.51419286181 
2083	 8037.69563379532 
2084	 8035.18479215342 
2085	 8044.6749680918 
2086	 8045.71173630859 
2087	 8041.10376810916 
2088	 8035.9442547895 
2089	 8028.46386522612 
2090	 8028.71423664578 
2091	 8027.50882032885 
2092	 8029.79656670565 
2093	 8027.28364921128 
2094	 8020.01413425961 
2095	 8014.89941633006 
2096	 8007.87599050528 
2097	 8001.64938608125 
2098	 7998.87001856075 
2099	 7995.16916867251 
2100	 7992.25077529032 
2101	 7984.40370102091 
2102	 7978.10276767004 
2103	 7973.29573214365 
2104	 7970.3381408478 
2105	 7975.89788022414 
2106	 7981.47685057171 
2107	 7982.74526574162 
2108	 7979.50730821975 
2109	 7968.48057999623 
2110	 7965.47493915695 
2111	 7958.43621863399 
2112	 7956.56429141484 
2113	 7964.54370659375 
2114	 7967.8319962291 
2115	 7974.32297162908 
2116	 7974.77393513341 
2117	 7973.41922280579 
2118	 7962.68556215447 
2119	 7957.5220195134 
2120	 7960.90391612588 
2121	 7958.68373433707 
2122	 7953.59147969518 
2123	 7952.49419058599 
2124	 7942.24090905075 
2125	 7934.32764306623 
2126	 7931.50878650985 
2127	 7928.40168966513 
2128	 7922.8790827462 
2129	 7917.78615166379 
2130	 7912.94792214279 
2131	 7910.19977757578 
2132	 7909.28654897965 
2133	 7902.44901703312 
2134	 7892.35079635178 
2135	 7891.97368631797 
2136	 7886.65872996967 
2137	 7875.59450793881 
2138	 7870.63614382379 
2139	 7865.70620594747 
2140	 7860.98387067507 
2141	 7852.27858939769 
2142	 7837.83702780472 
2143	 7830.49759634281 
2144	 7823.57161881657 
2145	 7812.95901923246 
2146	 7806.51139652882 
2147	 7809.86631721753 
2148	 7804.46092535902 
2149	 7793.44199934508 
2150	 7786.82610441751 
2151	 7781.44111954499 
2152	 7772.20789848304 
2153	 7763.65208603889 
2154	 7752.96435585788 
2155	 7739.43084748 
2156	 7724.09467425369 
2157	 7712.9848504854 
2158	 7704.05277894305 
2159	 7699.47657031487 
2160	 7699.84694190081 
2161	 7696.09155224612 
2162	 7698.39357190065 
2163	 7689.0936293752 
2164	 7669.20992149361 
2165	 7656.52362921547 
2166	 7638.92437000318 
2167	 7624.99213130741 
2168	 7615.83400149119 
2169	 7607.7519871922 
2170	 7605.67403225558 
2171	 7596.10555587215 
2172	 7587.17567406021 
2173	 7571.69879177156 
2174	 7548.6447855267 
2175	 7527.24148071041 
2176	 7518.32300295569 
2177	 7503.6200207668 
2178	 7491.34068078989 
2179	 7490.27166540698 
2180	 7481.31633482786 
2181	 7473.92821116201 
2182	 7465.7988557405 
2183	 7456.73802816255 
2184	 7446.851215584 
2185	 7439.21684468931 
2186	 7425.73511811385 
2187	 7407.25304085868 
2188	 7391.2695014636 
2189	 7374.95225023219 
2190	 7356.45321007576 
2191	 7338.17245106058 
2192	 7320.12578228323 
2193	 7298.78516047153 
2194	 7269.78092323655 
2195	 7247.97004377129 
2196	 7234.77502532535 
2197	 7212.89867566875 
2198	 7185.08521951499 
2199	 7157.77546914171 
2200	 7128.13130375128 
2201	 7108.45037923986 
2202	 7099.83171932988 
2203	 7091.89910165278 
2204	 7078.5476605312 
2205	 7057.61115465897 
2206	 7028.07783055928 
2207	 7000.57212724402 
2208	 6964.89867591778 
2209	 6936.24598757412 
2210	 6911.76446182697 
2211	 6884.49387091064 
2212	 6856.11484304713 
2213	 6830.3677567903 
2214	 6804.70537179214 
2215	 6781.49202326273 
2216	 6759.23545407866 
2217	 6736.22774681575 
2218	 6707.36879660351 
2219	 6677.32381513249 
2220	 6649.01089258113 
2221	 6625.54787723052 
2222	 6602.21739714182 
2223	 6574.59146343599 
2224	 6544.58980539567 
2225	 6508.18070094784 
2226	 6476.72985816973 
2227	 6450.502460105 
2228	 6418.75355614829 
2229	 6387.77757214601 
2230	 6353.98523816044 
2231	 6313.55473381888 
2232	 6276.67424877277 
2233	 6236.36503287129 
2234	 6204.47182684628 
2235	 6183.52497627442 
2236	 6151.01333848737 
2237	 6123.1924222377 
2238	 6084.8128806402 
2239	 6032.27433317422 
2240	 5982.99591726907 
2241	 5934.52929378024 
2242	 5887.81691278904 
2243	 5850.5772759293 
2244	 5804.81387500372 
2245	 5759.68551258062 
2246	 5716.60564755195 
2247	 5668.13689608294 
2248	 5622.73561199251 
2249	 5577.88394125777 
2250	 5526.90603825189 
2251	 5477.19900431132 
2252	 5430.93230301908 
2253	 5388.46524256098 
2254	 5351.24423755199 
2255	 5310.76838270838 
2256	 5271.97031417242 
2257	 5232.03254107124 
2258	 5192.77398485124 
2259	 5149.20762147631 
2260	 5101.93921603814 
2261	 5057.60308000757 
2262	 5008.25267605627 
2263	 4961.0142822988 
2264	 4923.91333008659 
2265	 4876.97291235425 
2266	 4822.69170274653 
2267	 4773.02474701911 
2268	 4719.34059223472 
2269	 4666.84466850865 
2270	 4630.48644121246 
2271	 4592.90687839604 
2272	 4558.04905288513 
2273	 4529.87497191736 
2274	 4501.94472744721 
2275	 4476.34378486968 
2276	 4448.16407175757 
2277	 4424.54982340926 
2278	 4398.23984482161 
2279	 4372.71301561916 
2280	 4354.99918231196 
2281	 4327.97292842759 
2282	 4292.33503121127 
2283	 4252.47061325377 
2284	 4211.78765578246 
2285	 4174.28947586861 
2286	 4145.20418568815 
2287	 4119.54280866524 
2288	 4088.17059247254 
2289	 4055.95202812325 
2290	 4023.35281036119 
2291	 3985.57967657876 
2292	 3951.02661011405 
2293	 3923.4002028952 
2294	 3888.74529647403 
2295	 3846.80095206104 
2296	 3808.11249552164 
2297	 3766.02942163107 
2298	 3727.37347674938 
2299	 3692.38543776057 
2300	 3660.38715707028 
2301	 3631.30517233689 
2302	 3603.32547842734 
2303	 3569.32192538849 
2304	 3535.48836470161 
2305	 3503.16222723725 
2306	 3463.94977815482 
2307	 3424.22087682519 
2308	 3386.90307623134 
2309	 3348.32356763821 
2310	 3307.71874087251 
2311	 3271.82502449334 
2312	 3239.99787137617 
2313	 3215.16248406156 
2314	 3191.03262175398 
2315	 3173.85876702643 
2316	 3166.06630669745 
2317	 3138.54496523525 
2318	 3103.83384431178 
2319	 3068.3665012973 
2320	 3029.4153747259 
2321	 3001.09155007181 
2322	 2976.67201333574 
2323	 2956.87538290699 
2324	 2927.52325834995 
2325	 2890.17285219809 
2326	 2862.06985133903 
2327	 2833.66117444925 
2328	 2811.26302015064 
2329	 2797.35960106968 
2330	 2770.65914889539 
2331	 2739.70267235446 
2332	 2698.30414622168 
2333	 2667.8846240005 
2334	 2637.33260400987 
2335	 2612.73938443919 
2336	 2595.454891522 
2337	 2567.44178034141 
2338	 2532.69181889112 
2339	 2506.5057330027 
2340	 2485.92448894391 
2341	 2464.18541986905 
2342	 2449.09214672425 
2343	 2425.02189531915 
2344	 2392.82750349 
2345	 2359.87295996441 
2346	 2318.64715692052 
2347	 2287.6597519091 
2348	 2258.01622274564 
2349	 2233.44331754271 
2350	 2216.04777511722 
2351	 2204.73801920112 
2352	 2193.3169377609 
2353	 2180.69090619586 
2354	 2167.10514268255 
2355	 2142.35358120011 
2356	 2111.28544885818 
2357	 2082.66507031039 
2358	 2052.92641976307 
2359	 2025.83663858968 
2360	 2001.5741479674 
2361	 1976.62775811866 
2362	 1956.67871063807 
2363	 1948.23581007737 
2364	 1942.12623044843 
2365	 1935.46869510975 
2366	 1919.37435072622 
2367	 1894.37897386829 
2368	 1865.15297273402 
2369	 1830.9486151864 
2370	 1807.06028696527 
2371	 1783.54214518889 
2372	 1762.8558176313 
2373	 1745.34920321064 
2374	 1714.54437324271 
2375	 1692.7166944316 
2376	 1679.02907966935 
2377	 1661.25020275025 
2378	 1655.88525563429 
2379	 1651.19165580752 
2380	 1631.48003682663 
2381	 1609.20576089331 
2382	 1585.92156334363 
2383	 1562.77768442376 
2384	 1546.32196925372 
2385	 1534.18280549516 
2386	 1522.7492297388 
2387	 1501.03342698152 
2388	 1479.50022076588 
2389	 1466.63135204589 
2390	 1447.91575711607 
2391	 1426.68105094947 
2392	 1406.0968310097 
2393	 1382.82298889154 
2394	 1360.60845110111 
2395	 1340.12149586176 
2396	 1324.96087568399 
2397	 1314.46550149298 
2398	 1297.36562739725 
2399	 1283.45838551071 
2400	 1272.53195489655 
2401	 1247.40267948275 
2402	 1226.60484393371 
2403	 1214.89877405714 
2404	 1204.10869689109 
2405	 1191.39926730598 
2406	 1174.08787709037 
2407	 1152.82537643059 
2408	 1126.06991917543 
2409	 1107.76874673257 
2410	 1092.74005834532 
2411	 1085.65434589756 
2412	 1082.09675030855 
2413	 1068.3505055872 
2414	 1059.46203425914 
2415	 1050.02298929817 
2416	 1032.11483487694 
2417	 1010.22852115433 
2418	 992.722646692647 
2419	 972.215762232315 
2420	 953.555133343109 
2421	 947.556140757718 
2422	 930.953832036287 
2423	 918.506640868545 
2424	 920.911165054847 
2425	 908.118565131107 
2426	 893.605907475604 
2427	 886.405820584723 
2428	 870.431518384057 
2429	 857.519325875305 
2430	 849.289469071158 
2431	 837.646972552747 
2432	 823.273402797993 
2433	 804.172887648059 
2434	 789.068076031475 
2435	 776.049233849408 
2436	 761.524331682362 
2437	 755.268294734261 
2438	 740.373027027402 
2439	 722.247284023622 
2440	 717.251102877474 
2441	 706.78945367932 
2442	 705.368538314271 
2443	 711.761583420322 
2444	 703.665618128837 
2445	 701.220076374184 
2446	 701.829349227445 
2447	 693.200506228292 
2448	 684.426850126215 
2449	 663.208724605826 
2450	 636.095111876603 
2451	 615.466162913859 
2452	 593.160125954269 
2453	 576.348286693729 
2454	 558.558469085077 
2455	 541.507237805971 
2456	 531.864269152114 
2457	 529.939946797909 
2458	 534.098099435075 
2459	 528.620981201311 
2460	 530.553888122734 
2461	 534.719571932869 
2462	 522.955256039069 
2463	 517.029863318145 
2464	 509.207231256342 
2465	 490.362740870988 
2466	 480.434199533624 
2467	 481.765900594724 
2468	 485.14374569428 
2469	 487.730779623452 
2470	 482.955302709329 
2471	 474.879961662394 
2472	 466.051672807553 
2473	 447.713111111328 
2474	 436.098134934031 
2475	 427.280128689201 
2476	 412.344023536816 
2477	 407.18514983614 
2478	 404.744133696556 
2479	 394.636368965182 
2480	 388.663425914628 
2481	 386.844184067278 
2482	 379.615725944169 
2483	 389.428100293047 
2484	 394.683759536723 
2485	 381.08686084627 
2486	 383.300834111491 
2487	 382.408198161697 
2488	 381.998764604752 
2489	 394.060166168073 
2490	 394.029715147673 
2491	 382.038984068401 
2492	 367.838816705111 
2493	 356.895435567804 
2494	 347.819338719415 
2495	 343.696455813748 
2496	 346.073072282718 
2497	 341.479943368264 
2498	 330.49787674103 
2499	 322.317836183454 
2500	 319.334589462536 
