Wavelength	spectrum00008.asd
350	 18.9357363768595 
351	 18.6581334352361 
352	 17.8768156482521 
353	 18.1284458289861 
354	 19.9532684835939 
355	 21.2639758884137 
356	 22.5035051243845 
357	 23.6158458314206 
358	 24.1474704605329 
359	 24.9732152422589 
360	 26.5081099069788 
361	 28.4669026776906 
362	 29.1426624641365 
363	 29.7197039711326 
364	 31.3852029305075 
365	 34.8117498636477 
366	 37.3668509930506 
367	 39.9093833083932 
368	 42.3893462978947 
369	 43.357385011213 
370	 45.7879783157659 
371	 47.851285997339 
372	 48.0219908486001 
373	 49.7094022328484 
374	 52.9623506894883 
375	 56.9033161026632 
376	 60.0109143677247 
377	 61.4465956624929 
378	 62.8464836821623 
379	 65.2515171114216 
380	 68.0407521984488 
381	 69.402202604741 
382	 71.301935290225 
383	 75.8754532266955 
384	 78.2778328178163 
385	 80.2774024081446 
386	 82.804598657467 
387	 85.4871360602017 
388	 87.4009826125856 
389	 90.3900849741573 
390	 95.0903133188708 
391	 96.4906541714266 
392	 99.4108182909703 
393	 103.728938457186 
394	 106.675375508503 
395	 110.587738122588 
396	 113.547443243526 
397	 115.393042271496 
398	 119.913742415765 
399	 125.409025176436 
400	 130.67040924913 
401	 134.652592056256 
402	 136.3448823503 
403	 140.496494868649 
404	 147.472061242442 
405	 152.853780087896 
406	 157.525177293473 
407	 162.545491415818 
408	 168.543759999498 
409	 174.580095330895 
410	 180.097885002899 
411	 185.676714907614 
412	 192.564208040719 
413	 200.911041312064 
414	 209.082659619336 
415	 216.609652693235 
416	 225.708244918864 
417	 234.276866121276 
418	 242.252149795323 
419	 250.432725872196 
420	 259.902252797407 
421	 269.897018111323 
422	 279.739146811219 
423	 289.03023382488 
424	 299.623383529258 
425	 310.869052542854 
426	 321.856878297186 
427	 333.017601607168 
428	 344.738391652473 
429	 356.928708173127 
430	 369.132163465177 
431	 381.022512804334 
432	 392.830793782092 
433	 404.967594888444 
434	 418.283507979007 
435	 429.809813169086 
436	 440.925010748819 
437	 454.327185046812 
438	 467.674412457814 
439	 480.533527778298 
440	 492.841300532347 
441	 504.80044852995 
442	 517.146152906017 
443	 529.717661951936 
444	 541.888948384867 
445	 552.497043355631 
446	 561.972949618282 
447	 571.793876843063 
448	 584.068912215991 
449	 595.322214149881 
450	 605.0975597391 
451	 613.777239348537 
452	 622.256782866203 
453	 629.402611700522 
454	 636.392306902275 
455	 645.221976851823 
456	 652.69650113529 
457	 658.6475384324 
458	 663.909249953288 
459	 670.547207352029 
460	 675.549654885677 
461	 679.644544862754 
462	 684.54610653339 
463	 689.130057948607 
464	 693.296780590753 
465	 697.522643504276 
466	 702.880478882107 
467	 706.792739617665 
468	 710.85990389964 
469	 716.70055495565 
470	 721.860861603599 
471	 727.007191348426 
472	 731.581130104118 
473	 734.410492961099 
474	 741.231339162731 
475	 748.129749468072 
476	 752.004848741347 
477	 755.796045626974 
478	 762.653672880165 
479	 770.377230185996 
480	 774.736813393823 
481	 781.364747554075 
482	 788.220247383089 
483	 794.103893907866 
484	 800.714942880214 
485	 807.018708574265 
486	 813.817309803914 
487	 821.762698496662 
488	 827.13128051199 
489	 833.765724819949 
490	 842.002451511696 
491	 847.714754939108 
492	 855.483468656342 
493	 864.611913089693 
494	 873.74984930105 
495	 884.342492397903 
496	 894.845538650282 
497	 905.522155355757 
498	 917.974926254938 
499	 931.154282139575 
500	 943.64797077957 
501	 955.617597718519 
502	 971.373642395116 
503	 987.677416285792 
504	 1004.29671698017 
505	 1022.23698634682 
506	 1039.54427484953 
507	 1057.21456734734 
508	 1076.83383332578 
509	 1100.67917873406 
510	 1124.01514325498 
511	 1147.40113577991 
512	 1173.04418616176 
513	 1200.23903260149 
514	 1231.49204964604 
515	 1265.72075711473 
516	 1297.50402202651 
517	 1332.00212612051 
518	 1369.62312051553 
519	 1409.35357511993 
520	 1449.68623501046 
521	 1492.07575318009 
522	 1536.51898778524 
523	 1581.77138462042 
524	 1627.46615163061 
525	 1673.55273281833 
526	 1720.2107579072 
527	 1768.05483845791 
528	 1815.82062473109 
529	 1863.1597806938 
530	 1910.17321067732 
531	 1956.06318468052 
532	 2001.92261265215 
533	 2048.18298881623 
534	 2093.70061496658 
535	 2138.96147582796 
536	 2182.26696928366 
537	 2222.13090086327 
538	 2262.85078097155 
539	 2303.23185795022 
540	 2342.409972497 
541	 2380.40169732473 
542	 2419.12416802964 
543	 2457.84009869749 
544	 2495.79641242509 
545	 2535.45665642737 
546	 2574.03908522296 
547	 2611.93187272547 
548	 2652.00879095044 
549	 2688.7186869273 
550	 2724.49977145385 
551	 2761.51114855523 
552	 2797.20007195763 
553	 2829.50769371352 
554	 2859.25958637097 
555	 2888.52700470916 
556	 2913.20733714844 
557	 2934.72014233328 
558	 2954.36189944112 
559	 2971.96177672926 
560	 2986.36290980629 
561	 2996.78631070513 
562	 3002.69558476044 
563	 3003.60883051411 
564	 3002.01978887238 
565	 2999.04375507011 
566	 2993.78848552761 
567	 2985.86199988642 
568	 2976.06726560643 
569	 2965.20259970906 
570	 2951.6883056768 
571	 2942.15356212531 
572	 2938.23069906671 
573	 2936.9074859164 
574	 2936.90882981699 
575	 2937.31309712753 
576	 2939.16675919375 
577	 2948.78736093773 
578	 2957.53302156091 
579	 2967.31405457857 
580	 2984.94998730117 
581	 3003.61754704012 
582	 3020.00720040345 
583	 3033.44312456346 
584	 3047.60456881223 
585	 3054.51695860489 
586	 3057.29322609625 
587	 3061.9119931679 
588	 3063.72086223147 
589	 3065.87786308422 
590	 3069.14144057626 
591	 3070.79612392484 
592	 3070.99076362803 
593	 3068.65468224217 
594	 3063.44315073571 
595	 3058.10585032606 
596	 3053.42668207649 
597	 3050.38588327525 
598	 3049.86287523907 
599	 3048.78941264393 
600	 3048.10212383997 
601	 3048.29040598123 
602	 3046.68325486233 
603	 3045.66118509507 
604	 3044.41694265236 
605	 3040.92889131362 
606	 3037.25523698258 
607	 3033.65864275015 
608	 3029.88062058076 
609	 3025.10710876582 
610	 3020.43367763631 
611	 3015.75358927891 
612	 3010.68668010195 
613	 3005.58233137967 
614	 3000.69215171956 
615	 2996.4426648391 
616	 2993.42425489674 
617	 2991.56358094978 
618	 2990.13458203432 
619	 2989.38027450494 
620	 2993.30242503515 
621	 2997.41024123563 
622	 3001.49770813616 
623	 3008.0542281222 
624	 3015.38705999743 
625	 3023.81438328119 
626	 3033.49667748851 
627	 3043.87524704944 
628	 3053.44379669146 
629	 3063.13598888586 
630	 3073.96490926565 
631	 3080.68209571292 
632	 3086.13467550943 
633	 3091.56847419499 
634	 3095.4356746166 
635	 3095.45628280391 
636	 3092.81903809372 
637	 3089.37096681703 
638	 3085.4461090502 
639	 3078.87027010857 
640	 3070.58567470201 
641	 3063.78101954565 
642	 3056.43428451883 
643	 3048.13422032703 
644	 3039.74649434806 
645	 3034.73499069617 
646	 3029.22382176664 
647	 3023.88362724349 
648	 3021.12967319481 
649	 3020.27057753306 
650	 3020.3838440915 
651	 3021.15677069074 
652	 3023.11131406993 
653	 3028.80680518545 
654	 3035.65696614806 
655	 3040.88667884736 
656	 3047.44124646376 
657	 3053.96701440249 
658	 3060.57921453931 
659	 3068.53487523371 
660	 3076.22720177893 
661	 3084.25584783476 
662	 3093.90717606143 
663	 3107.61079168759 
664	 3120.09150352497 
665	 3132.22781304896 
666	 3147.2489372093 
667	 3163.23509414361 
668	 3179.88060764528 
669	 3197.48139763492 
670	 3216.92701912989 
671	 3239.85219533033 
672	 3264.4985792486 
673	 3288.99100983285 
674	 3314.83487127603 
675	 3342.89441913045 
676	 3372.37937600649 
677	 3401.58777965279 
678	 3434.72952029714 
679	 3468.18960510581 
680	 3500.63604930382 
681	 3538.29211832258 
682	 3578.70664043254 
683	 3621.17209152299 
684	 3665.87774946922 
685	 3714.91307416907 
686	 3767.21496063017 
687	 3823.0265683277 
688	 3884.38418616448 
689	 3956.18566296476 
690	 4036.08669535525 
691	 4122.36521939785 
692	 4220.54416295901 
693	 4334.19400577277 
694	 4463.04643096014 
695	 4604.89776858623 
696	 4764.05005331132 
697	 4943.68850164515 
698	 5144.53209583897 
699	 5363.64224167102 
700	 5602.80305709721 
701	 5858.48460735918 
702	 6126.62880194272 
703	 6409.15548239639 
704	 6703.84499014008 
705	 7006.39831922834 
706	 7311.62327733515 
707	 7627.25032940937 
708	 7950.85484039156 
709	 8280.29434422588 
710	 8618.5477411237 
711	 8962.08837960341 
712	 9310.74983926779 
713	 9665.7020213166 
714	 10027.1930065303 
715	 10393.308296602 
716	 10762.6640584127 
717	 11134.7362634641 
718	 11510.2042473237 
719	 11890.9818017421 
720	 12277.3362695737 
721	 12664.8895386028 
722	 13050.475250272 
723	 13433.102066123 
724	 13812.9841826799 
725	 14188.2145757067 
726	 14559.5773494749 
727	 14928.3051403676 
728	 15295.8566531925 
729	 15655.9548232242 
730	 16009.6544148418 
731	 16358.2453808296 
732	 16696.1635330837 
733	 17028.311019784 
734	 17354.7947233881 
735	 17672.6483633946 
736	 17981.8058257628 
737	 18283.6051290026 
738	 18578.7843991509 
739	 18866.6527184258 
740	 19151.7747428443 
741	 19430.3411094212 
742	 19698.2741760594 
743	 19962.1059755344 
744	 20209.2100661139 
745	 20438.7594142155 
746	 20660.2544718604 
747	 20892.0426261988 
748	 21120.9909205324 
749	 21340.954126274 
750	 21565.7881251646 
751	 21782.3042838314 
752	 21994.1479134846 
753	 22205.9107008404 
754	 22403.9981009537 
755	 22600.8392284346 
756	 22801.0634973338 
757	 23002.0488786115 
758	 23195.9457844732 
759	 23377.0290443034 
760	 23548.6311904618 
761	 23727.7088135679 
762	 23908.2803165588 
763	 24089.2337227607 
764	 24268.0579374042 
765	 24433.7290062127 
766	 24591.6052062648 
767	 24745.6594783683 
768	 24898.1178381919 
769	 25046.600036961 
770	 25187.4095386835 
771	 25327.5049191585 
772	 25490.1400529163 
773	 25640.6272542413 
774	 25771.0517139711 
775	 25883.1471724892 
776	 25981.8999885083 
777	 26072.3959165674 
778	 26153.2755704131 
779	 26221.9837696252 
780	 26298.971580408 
781	 26371.0581054357 
782	 26431.5488469355 
783	 26486.7593417628 
784	 26539.7010140001 
785	 26588.9400864446 
786	 26631.9457440918 
787	 26666.5698003659 
788	 26697.5875348056 
789	 26723.3208327319 
790	 26740.3917881675 
791	 26754.4804770119 
792	 26763.7456196145 
793	 26769.0372536748 
794	 26773.9110454926 
795	 26772.7700735612 
796	 26764.7402464277 
797	 26750.8692309412 
798	 26734.1762384899 
799	 26712.8470360765 
800	 26684.7136882552 
801	 26648.1662613581 
802	 26605.2244539123 
803	 26549.5708718828 
804	 26488.2314260535 
805	 26435.396442849 
806	 26378.6570768837 
807	 26316.9194917478 
808	 26253.0068373902 
809	 26193.0363043072 
810	 26121.160273623 
811	 26042.8403049044 
812	 25965.5784692058 
813	 25887.6408646013 
814	 25801.404562014 
815	 25703.8613076545 
816	 25596.0692914635 
817	 25485.5970891054 
818	 25373.7514135883 
819	 25259.8704381082 
820	 25142.2520640746 
821	 25024.9265770294 
822	 24903.8551191674 
823	 24776.95770573 
824	 24647.3700559583 
825	 24515.4273043618 
826	 24381.3723160713 
827	 24244.6268853146 
828	 24101.9391430459 
829	 23961.4816930605 
830	 23820.8009698814 
831	 23674.2299434044 
832	 23531.3296289531 
833	 23383.241972479 
834	 23229.7347764146 
835	 23079.0321494342 
836	 22927.8961234292 
837	 22780.5724310409 
838	 22638.6341263982 
839	 22497.884221972 
840	 22357.1560084921 
841	 22217.3693645167 
842	 22078.7955679448 
843	 21937.1986817908 
844	 21800.2417162667 
845	 21665.8006225335 
846	 21528.9684964974 
847	 21394.5441253083 
848	 21263.2380203144 
849	 21132.5497688774 
850	 20999.202985341 
851	 20875.9994096641 
852	 20750.6684013998 
853	 20619.5362697777 
854	 20493.8182236458 
855	 20364.960319798 
856	 20233.07447976 
857	 20101.5917828611 
858	 19976.7237420707 
859	 19857.1422221774 
860	 19740.250242632 
861	 19622.7971757225 
862	 19502.8696698206 
863	 19372.6704482514 
864	 19238.3771932851 
865	 19110.7972842054 
866	 18979.7199715168 
867	 18845.1454367126 
868	 18710.0041304304 
869	 18578.2274488712 
870	 18443.1569357459 
871	 18308.1920275248 
872	 18173.9935483973 
873	 18035.9196625598 
874	 17898.1478033393 
875	 17759.2102860445 
876	 17618.0669869063 
877	 17476.8858836217 
878	 17338.1122029593 
879	 17199.7619409682 
880	 17059.0405087503 
881	 16915.5829206798 
882	 16771.4716405166 
883	 16629.1626302983 
884	 16489.4575474385 
885	 16345.3257964068 
886	 16201.2362247757 
887	 16056.9655256994 
888	 15909.6764517649 
889	 15764.8666159708 
890	 15619.6543030238 
891	 15474.3125343992 
892	 15332.2102726922 
893	 15184.4607460114 
894	 15039.3386562032 
895	 14898.8363728871 
896	 14752.8906889776 
897	 14609.0191640511 
898	 14467.3801049167 
899	 14326.5547355898 
900	 14185.1836167768 
901	 14045.6697495559 
902	 13906.2370307073 
903	 13764.9480537855 
904	 13622.070050928 
905	 13486.1088562463 
906	 13353.5350831388 
907	 13218.2807813803 
908	 13084.1421862408 
909	 12948.874462001 
910	 12813.7349498144 
911	 12681.3391020767 
912	 12551.7109201038 
913	 12420.6212416336 
914	 12288.8038054889 
915	 12160.0551998614 
916	 12033.6274894243 
917	 11906.9532543487 
918	 11780.8854699846 
919	 11658.4371901262 
920	 11532.6516439492 
921	 11409.0792976157 
922	 11288.1921037197 
923	 11163.8427717478 
924	 11039.8626612119 
925	 10917.2592733995 
926	 10795.4159829562 
927	 10672.3517649504 
928	 10551.8163872062 
929	 10431.0849857382 
930	 10308.2679448045 
931	 10185.0130128038 
932	 10064.5226360061 
933	 9946.23540754897 
934	 9828.07234410947 
935	 9707.06939610823 
936	 9590.59967731278 
937	 9476.62390373621 
938	 9362.30392208314 
939	 9249.54610455006 
940	 9136.7530947181 
941	 9024.13513035874 
942	 8911.82022299166 
943	 8798.01513612242 
944	 8684.8161232448 
945	 8572.24048792727 
946	 8459.61478046968 
947	 8346.43714500796 
948	 8234.38863387416 
949	 8121.66097852319 
950	 8007.19294748818 
951	 7897.42592688417 
952	 7785.97746469761 
953	 7675.23174915759 
954	 7569.18145657796 
955	 7463.01431741734 
956	 7356.63176911667 
957	 7249.70572100926 
958	 7142.73343473746 
959	 7039.30722185933 
960	 6937.70142543748 
961	 6836.10046260097 
962	 6733.88595982843 
963	 6635.17328339168 
964	 6534.93168632632 
965	 6435.8000456897 
966	 6341.83245269119 
967	 6245.37586087117 
968	 6148.2452105706 
969	 6052.46057357371 
970	 5959.20264754142 
971	 5866.32437447125 
972	 5774.7483895047 
973	 5683.98928749803 
974	 5593.57814692031 
975	 5506.62238936003 
976	 5418.38993132458 
977	 5330.08061682215 
978	 5244.69620927434 
979	 5158.96177360749 
980	 5073.97776381045 
981	 4989.8442992208 
982	 4906.79465710903 
983	 4827.81317732459 
984	 4748.26656266225 
985	 4668.62578944411 
986	 4590.86737880913 
987	 4512.90730527355 
988	 4436.19153547763 
989	 4360.80187382603 
990	 4286.25051945567 
991	 4212.29248391426 
992	 4138.89080434123 
993	 4067.26024829713 
994	 3997.55081684439 
995	 3925.5069498465 
996	 3853.40896049518 
997	 3784.69485476584 
998	 3719.94448423672 
999	 3651.70480819762 
1000	 3585.92438904823 
1001	 7754.13010563739 
1002	 7791.50159937193 
1003	 7832.17386350626 
1004	 7873.55917638582 
1005	 7921.12540001933 
1006	 7977.75333852195 
1007	 8039.26583388834 
1008	 8100.68748823116 
1009	 8160.42633266716 
1010	 8218.23689224952 
1011	 8272.52986718416 
1012	 8335.50052002953 
1013	 8406.36974498853 
1014	 8477.14225764537 
1015	 8548.40896404243 
1016	 8627.61076368534 
1017	 8711.18563612752 
1018	 8799.94130586982 
1019	 8897.15687083691 
1020	 8990.64090951061 
1021	 9077.78278805309 
1022	 9159.4315367501 
1023	 9234.91572332915 
1024	 9311.97741051998 
1025	 9392.58698833351 
1026	 9482.06385084727 
1027	 9561.95222647736 
1028	 9639.99453427237 
1029	 9714.34178096665 
1030	 9785.04156405881 
1031	 9846.59509907836 
1032	 9910.36902191199 
1033	 9973.33095279661 
1034	 10029.961375943 
1035	 10080.5156896714 
1036	 10122.1138596014 
1037	 10158.3236818121 
1038	 10192.9141074058 
1039	 10221.034304122 
1040	 10245.3434511966 
1041	 10265.9130487729 
1042	 10284.9384475467 
1043	 10301.4872189452 
1044	 10318.1858281734 
1045	 10335.0885032167 
1046	 10345.0507666305 
1047	 10347.7165952983 
1048	 10349.3276916224 
1049	 10354.9368102504 
1050	 10367.5530942458 
1051	 10374.4724932878 
1052	 10375.8996294391 
1053	 10382.9217694014 
1054	 10389.9515241105 
1055	 10393.8570621329 
1056	 10407.9045756331 
1057	 10427.1677048512 
1058	 10440.4864999221 
1059	 10458.874498341 
1060	 10474.5079876123 
1061	 10494.5777610594 
1062	 10524.6812878063 
1063	 10558.2386452825 
1064	 10601.7227972387 
1065	 10647.1651660104 
1066	 10698.8830211992 
1067	 10758.221426785 
1068	 10822.8891290498 
1069	 10890.0999127258 
1070	 10975.38112577 
1071	 11065.3591414463 
1072	 11160.7706114647 
1073	 11268.6328271546 
1074	 11375.3270668881 
1075	 11494.0884039869 
1076	 11612.4448754731 
1077	 11728.5701815839 
1078	 11862.2295670638 
1079	 11992.6091837063 
1080	 12126.9128415932 
1081	 12264.9275950963 
1082	 12414.9743228317 
1083	 12566.2223187117 
1084	 12722.6745216105 
1085	 12886.6404860482 
1086	 13051.4653689003 
1087	 13218.6502144558 
1088	 13385.4852005221 
1089	 13542.8069612801 
1090	 13704.4109364837 
1091	 13862.4855247677 
1092	 14013.6346251494 
1093	 14168.5964424427 
1094	 14331.9730244484 
1095	 14486.6083435248 
1096	 14638.1350719235 
1097	 14785.4661660771 
1098	 14927.6354106585 
1099	 15063.7296367213 
1100	 15199.2559295434 
1101	 15334.8098211789 
1102	 15465.4634233176 
1103	 15594.3878919878 
1104	 15720.6370272524 
1105	 15841.0842136994 
1106	 15956.9013173158 
1107	 16069.3580927467 
1108	 16179.9592624234 
1109	 16284.4094793535 
1110	 16388.1806105439 
1111	 16491.4534495091 
1112	 16591.2710261246 
1113	 16692.6824160905 
1114	 16785.3874671973 
1115	 16876.0110320618 
1116	 16963.8971698777 
1117	 17037.6034254665 
1118	 17112.8595910822 
1119	 17192.9388229796 
1120	 17275.30243726 
1121	 17354.8486754803 
1122	 17437.3428434543 
1123	 17516.1968365021 
1124	 17587.2672392517 
1125	 17664.309449371 
1126	 17743.2919604327 
1127	 17827.6910616133 
1128	 17910.3134913856 
1129	 17988.5951275091 
1130	 18061.8345587589 
1131	 18130.3578149064 
1132	 18194.3583184534 
1133	 18247.5756592641 
1134	 18311.3131713299 
1135	 18374.9492966603 
1136	 18440.6846921023 
1137	 18517.2418304883 
1138	 18583.0038584003 
1139	 18645.0867835829 
1140	 18701.8732336658 
1141	 18752.7349707245 
1142	 18802.8474830013 
1143	 18840.7311628886 
1144	 18883.6346718446 
1145	 18930.1207577494 
1146	 18969.7993327803 
1147	 19015.3082450331 
1148	 19067.875610841 
1149	 19115.2141609261 
1150	 19160.5161266007 
1151	 19206.8663650865 
1152	 19251.8912463623 
1153	 19298.7982989821 
1154	 19346.7885856643 
1155	 19394.5573230063 
1156	 19444.707636327 
1157	 19491.9943765085 
1158	 19538.9205654622 
1159	 19586.1124389607 
1160	 19629.4264255263 
1161	 19676.1254010319 
1162	 19719.2893638893 
1163	 19761.5566864272 
1164	 19799.7940761261 
1165	 19835.6920401545 
1166	 19869.978445066 
1167	 19899.9077648184 
1168	 19931.2081054541 
1169	 19963.8971759168 
1170	 19992.158330131 
1171	 20013.6207267111 
1172	 20042.2605000545 
1173	 20073.2939394208 
1174	 20100.0686881961 
1175	 20124.5251116398 
1176	 20150.5556166063 
1177	 20173.0871775974 
1178	 20188.3218115717 
1179	 20208.4915661837 
1180	 20232.8626257938 
1181	 20252.806170394 
1182	 20271.8965706144 
1183	 20288.3853573759 
1184	 20299.860329261 
1185	 20315.036879632 
1186	 20328.6910766706 
1187	 20344.4073018609 
1188	 20361.1009885138 
1189	 20382.1840569237 
1190	 20403.0390015685 
1191	 20424.1514561078 
1192	 20447.4907373565 
1193	 20473.2896116306 
1194	 20498.485694641 
1195	 20523.7472715983 
1196	 20551.9063888978 
1197	 20583.5759782385 
1198	 20612.9256343897 
1199	 20643.2535707071 
1200	 20672.7480253041 
1201	 20696.1698600229 
1202	 20726.9745329436 
1203	 20761.4216332977 
1204	 20799.4791686914 
1205	 20839.6628178792 
1206	 20873.172872001 
1207	 20906.4834704933 
1208	 20934.4248666839 
1209	 20966.9791078915 
1210	 21000.1015384681 
1211	 21034.7725415908 
1212	 21071.1207358057 
1213	 21107.6657011421 
1214	 21143.5096551579 
1215	 21182.5636369427 
1216	 21226.3144170387 
1217	 21265.9378286359 
1218	 21307.9899901177 
1219	 21346.0681592735 
1220	 21376.8061171738 
1221	 21411.7158348032 
1222	 21445.746831436 
1223	 21479.8567254298 
1224	 21511.9930559847 
1225	 21545.7652436757 
1226	 21574.0335342472 
1227	 21596.9923003956 
1228	 21622.6068335757 
1229	 21649.1199908139 
1230	 21670.7459068204 
1231	 21692.8160701775 
1232	 21710.1683798287 
1233	 21720.5582831658 
1234	 21731.4137069598 
1235	 21740.493379969 
1236	 21748.3285930842 
1237	 21754.7888226296 
1238	 21761.8784835453 
1239	 21760.216766365 
1240	 21752.94259621 
1241	 21748.2007391517 
1242	 21738.2661916218 
1243	 21730.1124390126 
1244	 21727.7549774852 
1245	 21716.0597173366 
1246	 21696.7033673051 
1247	 21680.0215762725 
1248	 21656.7456664001 
1249	 21640.6688265687 
1250	 21629.7807309242 
1251	 21616.9525697719 
1252	 21606.1503223349 
1253	 21595.7453737103 
1254	 21585.4072438267 
1255	 21573.4475320242 
1256	 21564.1177720849 
1257	 21559.1170086379 
1258	 21547.4372524003 
1259	 21532.2848653014 
1260	 21520.0017185439 
1261	 21506.8480732774 
1262	 21492.0763904827 
1263	 21482.316269251 
1264	 21463.6290296645 
1265	 21440.5790329384 
1266	 21412.408267332 
1267	 21379.189411786 
1268	 21342.1220603024 
1269	 21300.3242415738 
1270	 21254.2633484239 
1271	 21204.7643321618 
1272	 21148.836035569 
1273	 21092.5519408369 
1274	 21032.7063632112 
1275	 20969.7001212441 
1276	 20904.198483629 
1277	 20836.3984598184 
1278	 20763.2336508903 
1279	 20691.1374945449 
1280	 20616.0327407826 
1281	 20544.6106713559 
1282	 20472.0996420388 
1283	 20403.4886435391 
1284	 20338.894429374 
1285	 20274.5246656801 
1286	 20208.2727326427 
1287	 20148.8451537957 
1288	 20092.7395727218 
1289	 20040.0934303194 
1290	 19992.6058424102 
1291	 19948.4214460652 
1292	 19908.7736229118 
1293	 19871.5157535185 
1294	 19840.1333984695 
1295	 19813.0685845488 
1296	 19793.0870534621 
1297	 19779.3012744649 
1298	 19768.7730630122 
1299	 19766.0071925568 
1300	 19763.7929330036 
1301	 19761.9436775573 
1302	 19766.6771336017 
1303	 19776.3737805428 
1304	 19789.4247121474 
1305	 19809.4818904068 
1306	 19829.4278775159 
1307	 19854.4965271566 
1308	 19876.0282216637 
1309	 19898.4604172452 
1310	 19921.4247210978 
1311	 19946.9039855666 
1312	 19974.5370518768 
1313	 20000.2418462087 
1314	 20025.698673859 
1315	 20054.6823878784 
1316	 20082.5259726863 
1317	 20112.9405161887 
1318	 20153.6422601615 
1319	 20182.7550280989 
1320	 20205.5403300652 
1321	 20229.8613715132 
1322	 20249.6607424723 
1323	 20269.2150190503 
1324	 20290.1053181982 
1325	 20310.1013639568 
1326	 20327.6754584747 
1327	 20343.5374880225 
1328	 20367.7641700832 
1329	 20383.9747994192 
1330	 20398.5247675644 
1331	 20414.4093874872 
1332	 20421.1353944928 
1333	 20417.1628664779 
1334	 20420.0621919866 
1335	 20422.3114913336 
1336	 20422.4011075869 
1337	 20424.3026467209 
1338	 20424.2919061521 
1339	 20424.183675403 
1340	 20415.5103601498 
1341	 20408.4827626377 
1342	 20390.2212326019 
1343	 20358.209303304 
1344	 20326.8510815232 
1345	 20292.9369202048 
1346	 20252.0058896303 
1347	 20210.0681192455 
1348	 20158.6309463169 
1349	 20098.2340050439 
1350	 20027.2923994852 
1351	 19940.973831786 
1352	 19835.6330154403 
1353	 19736.5056966288 
1354	 19621.0686791006 
1355	 19521.6784279391 
1356	 19432.8968128777 
1357	 19335.8715186519 
1358	 19237.7178037586 
1359	 19141.2728690665 
1360	 19019.77281093 
1361	 18945.0262245506 
1362	 18881.2591245076 
1363	 18849.6710287424 
1364	 18878.4137448826 
1365	 18882.6624909395 
1366	 18896.1992328155 
1367	 18908.2022050359 
1368	 18910.1262166187 
1369	 18913.5922434171 
1370	 18941.854709652 
1371	 18976.5384577181 
1372	 18995.5214014323 
1373	 19036.4588631723 
1374	 19012.3820162734 
1375	 18973.2684671366 
1376	 18871.8838206387 
1377	 18712.7269080107 
1378	 18539.7095438728 
1379	 18294.932434385 
1380	 18097.9439567032 
1381	 17867.7317057941 
1382	 17708.5860115224 
1383	 17595.6640617253 
1384	 17492.7728697181 
1385	 17459.6610116222 
1386	 17380.7538692594 
1387	 17315.9764928288 
1388	 17204.9419014746 
1389	 17066.3767582755 
1390	 16896.4416567021 
1391	 16698.6715873767 
1392	 16474.1725800409 
1393	 16236.8964354214 
1394	 16009.734797701 
1395	 15803.9063919813 
1396	 15605.1681386761 
1397	 15420.7655439481 
1398	 15262.6423784622 
1399	 15092.8229290478 
1400	 14922.2629355476 
1401	 14760.0923707316 
1402	 14601.1824907995 
1403	 14447.2724142763 
1404	 14297.1397246032 
1405	 14157.692293862 
1406	 14020.4044837997 
1407	 13898.9936917286 
1408	 13792.1639648779 
1409	 13690.3846221241 
1410	 13601.3488385234 
1411	 13514.9750507514 
1412	 13438.1286444556 
1413	 13360.8436882407 
1414	 13285.9877477009 
1415	 13213.8885671486 
1416	 13146.197016849 
1417	 13084.8135632196 
1418	 13024.9552064301 
1419	 12964.3632411923 
1420	 12910.1655816601 
1421	 12854.6111186616 
1422	 12808.7372266467 
1423	 12773.9913933813 
1424	 12735.4859242851 
1425	 12699.2363124795 
1426	 12665.4343991938 
1427	 12631.7261475757 
1428	 12602.2167900303 
1429	 12576.0950878946 
1430	 12551.9483264758 
1431	 12529.5128902514 
1432	 12512.334606297 
1433	 12499.6369657241 
1434	 12489.4479285417 
1435	 12484.1476205771 
1436	 12478.6741815753 
1437	 12476.7996710992 
1438	 12473.0426856483 
1439	 12464.4518545186 
1440	 12466.7765874852 
1441	 12468.3553576165 
1442	 12463.1036279102 
1443	 12464.5260045345 
1444	 12465.2936578715 
1445	 12469.7483354454 
1446	 12474.537346836 
1447	 12486.514558904 
1448	 12505.2933337921 
1449	 12519.2259267572 
1450	 12539.0007987434 
1451	 12548.3424023424 
1452	 12548.1439818053 
1453	 12556.8050768534 
1454	 12562.5013927321 
1455	 12574.7258862991 
1456	 12596.7751342181 
1457	 12612.652329899 
1458	 12631.2654133417 
1459	 12642.2679199707 
1460	 12643.4578822749 
1461	 12652.4045497739 
1462	 12658.9029293195 
1463	 12670.4880169982 
1464	 12691.5234797101 
1465	 12708.655347927 
1466	 12724.9864256651 
1467	 12741.1138713718 
1468	 12751.6725313337 
1469	 12772.2165369199 
1470	 12791.0617635387 
1471	 12812.6259395171 
1472	 12844.862814613 
1473	 12868.1412285041 
1474	 12893.2723598012 
1475	 12919.5386550537 
1476	 12944.6397457307 
1477	 12967.7792018263 
1478	 12992.1010241218 
1479	 13017.3685313362 
1480	 13041.0530902078 
1481	 13062.2404441141 
1482	 13086.2693636426 
1483	 13111.5981275351 
1484	 13137.8951278763 
1485	 13164.7613147562 
1486	 13192.7841971292 
1487	 13222.3008301447 
1488	 13250.7615080921 
1489	 13283.7729856409 
1490	 13310.0520401938 
1491	 13332.6424550347 
1492	 13354.3088863696 
1493	 13367.7382707298 
1494	 13388.0555235135 
1495	 13408.7970168544 
1496	 13434.1030080664 
1497	 13470.594056102 
1498	 13497.8369389654 
1499	 13522.421482902 
1500	 13547.0107456552 
1501	 13565.6238924436 
1502	 13584.1754132174 
1503	 13610.1797850578 
1504	 13638.9854213196 
1505	 13665.3549290628 
1506	 13693.7577888959 
1507	 13716.552564489 
1508	 13735.6847532699 
1509	 13754.6327429701 
1510	 13770.1176018835 
1511	 13787.9898345134 
1512	 13806.3650406464 
1513	 13823.6643324176 
1514	 13840.0236086974 
1515	 13858.7327963104 
1516	 13878.2885694694 
1517	 13896.6120543259 
1518	 13916.4700776835 
1519	 13935.5328342701 
1520	 13955.5440481203 
1521	 13969.6793952214 
1522	 13977.6529165857 
1523	 13992.9717540533 
1524	 14006.4527569053 
1525	 14022.4694099103 
1526	 14049.2665630817 
1527	 14067.2681527508 
1528	 14081.2668754543 
1529	 14093.1388711118 
1530	 14100.9536553395 
1531	 14109.0589296702 
1532	 14114.1692702298 
1533	 14119.5919391124 
1534	 14123.328490082 
1535	 14129.3881592127 
1536	 14136.2456283561 
1537	 14143.4892680121 
1538	 14152.998643629 
1539	 14162.1987253805 
1540	 14172.4808208208 
1541	 14179.1903788424 
1542	 14190.3185427772 
1543	 14202.6282145888 
1544	 14213.9741206891 
1545	 14226.795998555 
1546	 14237.6854220091 
1547	 14248.1950007601 
1548	 14255.4361541412 
1549	 14261.8580216164 
1550	 14265.1469282842 
1551	 14261.8859094591 
1552	 14266.9680830173 
1553	 14272.1313977265 
1554	 14282.5064453971 
1555	 14302.0830541039 
1556	 14312.8211413477 
1557	 14324.5097174135 
1558	 14329.9079477055 
1559	 14327.8124798083 
1560	 14329.1106935899 
1561	 14328.6180823618 
1562	 14328.5017337997 
1563	 14330.4780708129 
1564	 14328.5652784117 
1565	 14320.9223528106 
1566	 14320.1322926568 
1567	 14322.2432684419 
1568	 14321.7861603383 
1569	 14326.6506139862 
1570	 14325.1029974944 
1571	 14315.5127645584 
1572	 14310.7673472276 
1573	 14305.7090044986 
1574	 14302.2620416991 
1575	 14302.2454487835 
1576	 14300.0356246127 
1577	 14298.4082826793 
1578	 14294.7044029549 
1579	 14288.3224161825 
1580	 14283.2578457651 
1581	 14278.5349460111 
1582	 14272.2410180391 
1583	 14264.9841500163 
1584	 14258.7068835194 
1585	 14251.5788697579 
1586	 14244.5074694756 
1587	 14237.7785992431 
1588	 14232.1707670427 
1589	 14225.2947204348 
1590	 14220.7493933001 
1591	 14221.0679373004 
1592	 14218.3693504636 
1593	 14218.1826936906 
1594	 14212.6682994387 
1595	 14199.8498589452 
1596	 14189.4938049385 
1597	 14180.4712465493 
1598	 14168.5036379171 
1599	 14162.7620421765 
1600	 14163.8053054219 
1601	 14156.5739522975 
1602	 14147.7028201982 
1603	 14139.2781105498 
1604	 14127.0761133773 
1605	 14118.2034072027 
1606	 14113.4344611803 
1607	 14102.5232659478 
1608	 14089.0572556263 
1609	 14075.4104327993 
1610	 14059.4245301854 
1611	 14042.7577399858 
1612	 14026.5293140805 
1613	 14007.3362561977 
1614	 13984.0366416758 
1615	 13964.4901148909 
1616	 13944.5233223566 
1617	 13925.5298195061 
1618	 13911.1968989527 
1619	 13888.9492610997 
1620	 13860.7308660169 
1621	 13839.657548709 
1622	 13819.2158781357 
1623	 13796.03694918 
1624	 13778.050308029 
1625	 13752.8015652609 
1626	 13720.2776287362 
1627	 13688.9717907237 
1628	 13653.8403893994 
1629	 13625.5439547982 
1630	 13600.2197549026 
1631	 13571.4689635459 
1632	 13546.9159068495 
1633	 13517.8685711707 
1634	 13481.5109573232 
1635	 13450.0224655574 
1636	 13420.936397717 
1637	 13391.7759163042 
1638	 13365.3329147983 
1639	 13333.8360928841 
1640	 13302.4565155902 
1641	 13266.0143791409 
1642	 13221.8125865699 
1643	 13182.1292574427 
1644	 13139.5039252426 
1645	 13102.7704601415 
1646	 13073.1677054115 
1647	 13037.4541869537 
1648	 13004.0411606592 
1649	 12964.5415903762 
1650	 12915.4569452616 
1651	 12874.2321588541 
1652	 12836.135219829 
1653	 12794.4714366373 
1654	 12754.13464092 
1655	 12713.0667084441 
1656	 12670.8923855178 
1657	 12624.7139814888 
1658	 12580.628070959 
1659	 12529.4971563328 
1660	 12466.0999817875 
1661	 12412.2967436864 
1662	 12358.7521096632 
1663	 12307.93587898 
1664	 12264.3462780762 
1665	 12216.328580981 
1666	 12169.4389590272 
1667	 12118.5599378492 
1668	 12059.6418190974 
1669	 12009.7137719245 
1670	 11959.810487168 
1671	 11915.4586203314 
1672	 11882.6304861124 
1673	 11843.2738379006 
1674	 11802.0789511806 
1675	 11761.4909377427 
1676	 11718.8947646443 
1677	 11679.5285516448 
1678	 11646.1208440794 
1679	 11604.4840763445 
1680	 11558.8672200833 
1681	 11513.9994074094 
1682	 11466.8948272909 
1683	 11416.9407808667 
1684	 11365.0453145761 
1685	 11314.9518277441 
1686	 11258.9631915345 
1687	 11208.6687393595 
1688	 11165.02333856 
1689	 11119.3000402209 
1690	 11073.2600940405 
1691	 11028.3732230588 
1692	 10984.4095733918 
1693	 10940.059135677 
1694	 10899.1275618345 
1695	 10854.2293204964 
1696	 10806.1563848216 
1697	 10759.3997362907 
1698	 10706.4329811227 
1699	 10661.5650539434 
1700	 10622.732381909 
1701	 10584.0803340413 
1702	 10551.6210484769 
1703	 10515.6066293253 
1704	 10477.88623433 
1705	 10439.4786058049 
1706	 10400.2339434117 
1707	 10360.4069494191 
1708	 10320.4893753598 
1709	 10278.774546133 
1710	 10232.9367955452 
1711	 10194.0324847604 
1712	 10160.1604082881 
1713	 10121.1406241435 
1714	 10085.3366152488 
1715	 10042.942837806 
1716	 9989.59673375189 
1717	 9944.63177111629 
1718	 9905.08312627679 
1719	 9861.17625115558 
1720	 9817.50959949289 
1721	 9772.66021376198 
1722	 9720.62288221262 
1723	 9677.60175663309 
1724	 9641.29776162691 
1725	 9600.46572158298 
1726	 9562.621160633 
1727	 9523.70420807383 
1728	 9479.89010276253 
1729	 9443.0841185956 
1730	 9410.49440492585 
1731	 9375.31819942495 
1732	 9341.45506668073 
1733	 9306.67068935168 
1734	 9270.6370645024 
1735	 9234.27671938861 
1736	 9201.83183006284 
1737	 9163.59349597802 
1738	 9120.37258647334 
1739	 9083.40392711008 
1740	 9044.26870078197 
1741	 9005.52460032639 
1742	 8971.04256497507 
1743	 8934.44158207303 
1744	 8896.23982345941 
1745	 8858.22524008134 
1746	 8821.01532841571 
1747	 8775.66855356148 
1748	 8731.97591382478 
1749	 8696.71420563022 
1750	 8656.89964018209 
1751	 8619.33803237546 
1752	 8583.73613151049 
1753	 8539.23850691696 
1754	 8495.80956519376 
1755	 8449.130806897 
1756	 8399.25904039697 
1757	 8358.71445024933 
1758	 8316.08770409216 
1759	 8276.52589343666 
1760	 8240.79930115566 
1761	 8193.93735455584 
1762	 8145.51486343548 
1763	 8096.68556685113 
1764	 8050.42165586516 
1765	 8010.95733824954 
1766	 7967.61353501776 
1767	 7928.30453190254 
1768	 7894.87585815819 
1769	 7859.39900934167 
1770	 7826.30679615356 
1771	 7788.01083907865 
1772	 7743.92424460318 
1773	 7703.69754455209 
1774	 7666.08192599716 
1775	 7636.65316902876 
1776	 7609.24040690463 
1777	 7572.90672513596 
1778	 7538.11675889246 
1779	 7504.37102956286 
1780	 7464.23845593875 
1781	 7422.63508945745 
1782	 7382.19266663546 
1783	 7335.86278008097 
1784	 7297.81900686774 
1785	 7268.16135716198 
1786	 7234.06873889343 
1787	 7200.97640848427 
1788	 7167.23348023549 
1789	 7133.09575049764 
1790	 7095.36996083638 
1791	 7057.44188083034 
1792	 7015.29878864358 
1793	 6964.58986454899 
1794	 6920.6684489963 
1795	 6880.70830091727 
1796	 6839.62034953945 
1797	 6797.68483922197 
1798	 6757.21245052735 
1799	 6715.84105430376 
1800	 6677.52837562151 
1801	 11754.402475798 
1802	 11884.7104163487 
1803	 12015.5821205978 
1804	 12160.4435741033 
1805	 12290.9283042089 
1806	 12402.5656827671 
1807	 12504.4383855585 
1808	 12597.1724056545 
1809	 12668.8514116409 
1810	 12746.0237079107 
1811	 12825.0710341692 
1812	 12892.7668897288 
1813	 12957.2617404371 
1814	 13001.9588494693 
1815	 13045.3607984703 
1816	 13083.2948851046 
1817	 13106.576478195 
1818	 13143.9909037421 
1819	 13199.2111448067 
1820	 13269.2055705541 
1821	 13332.0779261166 
1822	 13411.0493618194 
1823	 13491.6184590675 
1824	 13543.1135749969 
1825	 13599.2328652493 
1826	 13659.7870194044 
1827	 13704.1327095502 
1828	 13748.322914498 
1829	 13792.5526224139 
1830	 13829.0122096725 
1831	 13863.6300870388 
1832	 13883.5227829197 
1833	 13889.9943212506 
1834	 13883.6004660646 
1835	 13854.4773835784 
1836	 13849.3832115487 
1837	 13857.0440805542 
1838	 13879.6465825788 
1839	 13939.9857775027 
1840	 14060.0855621757 
1841	 14140.2734797278 
1842	 14243.2783460903 
1843	 14334.3237712656 
1844	 14347.5196921926 
1845	 14349.2196740573 
1846	 14360.9311004273 
1847	 14361.3968440177 
1848	 14391.1383777236 
1849	 14475.8337875462 
1850	 14508.2828365201 
1851	 14528.8511040691 
1852	 14546.8106086219 
1853	 14537.6725468398 
1854	 14502.4402921658 
1855	 14455.1752889126 
1856	 14414.6725568682 
1857	 14377.4343788719 
1858	 14332.7909645259 
1859	 14307.6630692618 
1860	 14335.5415881345 
1861	 14294.6095532884 
1862	 14246.5269571509 
1863	 14172.0108822645 
1864	 14017.7260742607 
1865	 13814.1387619438 
1866	 13549.8264413197 
1867	 13269.1202015322 
1868	 12994.1475817391 
1869	 12721.1403678731 
1870	 12502.7580913269 
1871	 12318.5378924807 
1872	 12174.1493303429 
1873	 12072.8952554172 
1874	 11998.2426660172 
1875	 11944.3443844493 
1876	 11894.307730882 
1877	 11828.4849086779 
1878	 11745.7015604137 
1879	 11626.4713683002 
1880	 11474.1757161251 
1881	 11301.7654132924 
1882	 11087.7529824728 
1883	 10874.9266251551 
1884	 10675.1452658373 
1885	 10470.722999724 
1886	 10275.4143767626 
1887	 10073.1061935402 
1888	 9850.17596492569 
1889	 9630.77709686263 
1890	 9442.05177260494 
1891	 9266.03162508248 
1892	 9106.75832214238 
1893	 8963.81559802631 
1894	 8827.13555523527 
1895	 8673.625952555 
1896	 8515.93430444241 
1897	 8349.21306130438 
1898	 8185.32573447692 
1899	 8047.11955936794 
1900	 7915.63413132203 
1901	 7802.12745672729 
1902	 7710.25163065872 
1903	 7644.91516389689 
1904	 7577.23159638658 
1905	 7528.27459135312 
1906	 7496.51396612926 
1907	 7455.91447113358 
1908	 7430.22945251904 
1909	 7405.09399451426 
1910	 7367.15559572283 
1911	 7340.85849533311 
1912	 7311.08821792217 
1913	 7279.58163789306 
1914	 7242.23354183135 
1915	 7218.40711888552 
1916	 7187.87261568249 
1917	 7154.37564651703 
1918	 7135.96892393812 
1919	 7120.90040757722 
1920	 7104.43620784428 
1921	 7101.34377474603 
1922	 7114.87741695825 
1923	 7128.49703674559 
1924	 7138.82586454788 
1925	 7160.20819246126 
1926	 7174.38031558231 
1927	 7176.79324877016 
1928	 7186.7445469745 
1929	 7193.61318358069 
1930	 7210.08356765504 
1931	 7225.58046386233 
1932	 7226.45802032762 
1933	 7231.6840262612 
1934	 7235.07867493464 
1935	 7240.40709427224 
1936	 7240.96446036544 
1937	 7250.73512454966 
1938	 7267.43465557333 
1939	 7284.94193024477 
1940	 7304.26364892442 
1941	 7324.45035764846 
1942	 7348.63524804314 
1943	 7369.74619405549 
1944	 7394.7814364615 
1945	 7424.92061030568 
1946	 7450.38168737222 
1947	 7473.17697627998 
1948	 7501.92174301787 
1949	 7535.61357391819 
1950	 7559.64955857543 
1951	 7581.20346762376 
1952	 7589.33734819099 
1953	 7604.06370144298 
1954	 7620.79429918273 
1955	 7639.81243545375 
1956	 7671.22429607817 
1957	 7697.90899085279 
1958	 7720.53210825482 
1959	 7742.73756344932 
1960	 7764.82473444502 
1961	 7787.6762238876 
1962	 7808.68302720622 
1963	 7829.80597494921 
1964	 7858.12636730444 
1965	 7882.8991281233 
1966	 7898.94646727239 
1967	 7914.0531040132 
1968	 7930.00355259294 
1969	 7950.29996430047 
1970	 7974.13516629538 
1971	 8012.97918037235 
1972	 8036.63050623017 
1973	 8058.12881399722 
1974	 8070.46599000824 
1975	 8073.53075336374 
1976	 8077.94605644452 
1977	 8088.49139976996 
1978	 8106.06500828871 
1979	 8130.71461975138 
1980	 8150.15369677487 
1981	 8171.76339139276 
1982	 8192.81459956189 
1983	 8212.15516627733 
1984	 8230.93688578529 
1985	 8253.01379486754 
1986	 8277.10597867345 
1987	 8293.18321023181 
1988	 8314.04979484139 
1989	 8343.00453641619 
1990	 8361.24995215275 
1991	 8377.52020511561 
1992	 8403.83830666071 
1993	 8422.43466010669 
1994	 8439.49546712876 
1995	 8461.65769990568 
1996	 8476.45798532488 
1997	 8479.31830944358 
1998	 8487.45725944732 
1999	 8493.22085207011 
2000	 8502.24535534156 
2001	 8518.89777950774 
2002	 8539.94751695863 
2003	 8563.46887154427 
2004	 8583.25627609763 
2005	 8601.3617696429 
2006	 8628.82045630207 
2007	 8645.7509891222 
2008	 8661.39159721852 
2009	 8671.38423404808 
2010	 8668.76162732233 
2011	 8669.27966859623 
2012	 8663.16529650329 
2013	 8671.79276660529 
2014	 8682.74166472962 
2015	 8692.0732088742 
2016	 8704.72839992898 
2017	 8717.7655757474 
2018	 8729.05851748935 
2019	 8740.88090378862 
2020	 8750.54079833778 
2021	 8766.27940337553 
2022	 8768.68849926428 
2023	 8757.8550970807 
2024	 8754.91815402342 
2025	 8750.65511132536 
2026	 8741.72089180402 
2027	 8748.22107341102 
2028	 8748.05617550477 
2029	 8735.84389560222 
2030	 8736.33579566423 
2031	 8728.70523291039 
2032	 8727.08307764795 
2033	 8726.31786803627 
2034	 8733.27701867905 
2035	 8727.85533637033 
2036	 8720.22759285559 
2037	 8710.18706057547 
2038	 8692.44912375953 
2039	 8677.78185289648 
2040	 8659.69004610216 
2041	 8644.3044178084 
2042	 8636.84701146586 
2043	 8633.72543259853 
2044	 8636.19537463753 
2045	 8632.60606555832 
2046	 8613.80781450212 
2047	 8598.73514226026 
2048	 8581.48595902958 
2049	 8553.67796779633 
2050	 8535.10260447635 
2051	 8526.24554297053 
2052	 8510.62311085376 
2053	 8491.19551232476 
2054	 8479.61566496832 
2055	 8471.97094078153 
2056	 8449.80952380195 
2057	 8434.72709938105 
2058	 8430.07525843943 
2059	 8419.60478092818 
2060	 8406.48091716232 
2061	 8395.87983623305 
2062	 8386.00721229982 
2063	 8380.27453616018 
2064	 8376.73981311528 
2065	 8370.70504838961 
2066	 8370.181478494 
2067	 8365.88197332432 
2068	 8353.45962145005 
2069	 8351.72944088293 
2070	 8346.87314716394 
2071	 8335.7726144725 
2072	 8335.95792499961 
2073	 8327.89463605553 
2074	 8318.82347338726 
2075	 8315.62457987827 
2076	 8305.67454731884 
2077	 8282.63336955179 
2078	 8273.68177327707 
2079	 8270.57045337979 
2080	 8265.24282131819 
2081	 8262.61019087331 
2082	 8262.48755150675 
2083	 8263.63054312988 
2084	 8268.75635008471 
2085	 8260.08579049266 
2086	 8262.97066560399 
2087	 8267.78678005956 
2088	 8259.10052993842 
2089	 8261.04717853456 
2090	 8252.86091642399 
2091	 8243.36773867736 
2092	 8229.95333559747 
2093	 8217.20534497598 
2094	 8208.08568438206 
2095	 8198.23964614002 
2096	 8179.99270793422 
2097	 8173.33759742292 
2098	 8170.60038871327 
2099	 8170.52973359632 
2100	 8179.67618628667 
2101	 8188.35198409832 
2102	 8184.62127347961 
2103	 8180.84684276224 
2104	 8170.47766906897 
2105	 8158.03095630056 
2106	 8151.34749785527 
2107	 8151.97897007442 
2108	 8151.16050367747 
2109	 8150.12032743064 
2110	 8151.55693537307 
2111	 8158.88129851223 
2112	 8157.39041123997 
2113	 8155.19479177672 
2114	 8148.23623442996 
2115	 8129.789910813 
2116	 8121.33477368887 
2117	 8109.13348679039 
2118	 8113.67841870489 
2119	 8119.83743165275 
2120	 8121.33646045447 
2121	 8125.16507338644 
2122	 8116.42892603459 
2123	 8108.85440683758 
2124	 8098.68954739749 
2125	 8090.32917469834 
2126	 8080.962236133 
2127	 8077.87769217791 
2128	 8076.20482254241 
2129	 8078.34024566421 
2130	 8090.99520007845 
2131	 8091.07675752312 
2132	 8089.31184526058 
2133	 8081.30279657101 
2134	 8060.03284723591 
2135	 8050.23093919169 
2136	 8036.25455781236 
2137	 8027.57582341225 
2138	 8032.23325103627 
2139	 8021.91406578202 
2140	 8010.71783498772 
2141	 8016.23567672956 
2142	 8012.42496897158 
2143	 8001.57321053302 
2144	 7999.00027880308 
2145	 7997.15283873762 
2146	 7993.16574603025 
2147	 7998.36757455653 
2148	 7997.37882652023 
2149	 7993.82869317344 
2150	 7988.70419017469 
2151	 7984.82373267267 
2152	 7968.04072190624 
2153	 7947.27334082352 
2154	 7921.46966745366 
2155	 7902.7268162737 
2156	 7890.33391636643 
2157	 7896.39625310236 
2158	 7905.76744976518 
2159	 7898.75318530038 
2160	 7888.91408047985 
2161	 7874.1248328762 
2162	 7841.13765252564 
2163	 7824.25430285349 
2164	 7811.56910868599 
2165	 7803.09543664696 
2166	 7804.41652169406 
2167	 7797.67455284501 
2168	 7788.29860421536 
2169	 7782.49260107792 
2170	 7774.95915816654 
2171	 7768.68457083496 
2172	 7770.89003776905 
2173	 7765.38593259902 
2174	 7749.4800019283 
2175	 7733.78976323642 
2176	 7706.38796543459 
2177	 7686.74340399253 
2178	 7669.58867784233 
2179	 7654.83791217495 
2180	 7652.74644888257 
2181	 7640.32434882835 
2182	 7629.66034419251 
2183	 7622.54037592045 
2184	 7612.26070146767 
2185	 7600.28510377887 
2186	 7586.80611699263 
2187	 7569.64568452402 
2188	 7554.03077994833 
2189	 7536.40374040494 
2190	 7518.34853129206 
2191	 7501.93256184252 
2192	 7488.14341758425 
2193	 7467.54253396466 
2194	 7443.76277951947 
2195	 7425.02970330097 
2196	 7407.79445833761 
2197	 7382.59432223589 
2198	 7359.85204574546 
2199	 7340.10425781806 
2200	 7309.42327946413 
2201	 7277.88069337802 
2202	 7257.59538816326 
2203	 7231.57744366184 
2204	 7203.47934852652 
2205	 7176.24680182818 
2206	 7146.10382475291 
2207	 7121.87971447637 
2208	 7100.01633059912 
2209	 7082.56341984726 
2210	 7073.64654044589 
2211	 7059.27845862476 
2212	 7048.98816339574 
2213	 7026.18089304108 
2214	 6991.61522933417 
2215	 6970.74846994943 
2216	 6934.46414584577 
2217	 6900.30492748406 
2218	 6879.52576271626 
2219	 6853.15953530478 
2220	 6834.45514141063 
2221	 6808.09884251 
2222	 6778.19975749357 
2223	 6747.561904343 
2224	 6714.49448003278 
2225	 6699.18123787436 
2226	 6678.49535019655 
2227	 6646.51020399251 
2228	 6610.93335907561 
2229	 6563.67404421619 
2230	 6522.67594984133 
2231	 6479.87644173849 
2232	 6438.63811406586 
2233	 6396.92229957137 
2234	 6362.36573951223 
2235	 6333.83632666638 
2236	 6301.57060706357 
2237	 6280.66500788587 
2238	 6241.67290403759 
2239	 6189.31591589083 
2240	 6135.75129516171 
2241	 6082.41352254618 
2242	 6034.35884734313 
2243	 5993.9812195556 
2244	 5947.68378840757 
2245	 5903.92216971894 
2246	 5863.99229576538 
2247	 5819.15069460253 
2248	 5785.17799787482 
2249	 5753.38172577077 
2250	 5710.56833420837 
2251	 5667.59037554327 
2252	 5615.58654726646 
2253	 5546.94625028748 
2254	 5485.94911372263 
2255	 5435.03475480278 
2256	 5389.45517877405 
2257	 5343.09133909567 
2258	 5308.4339150667 
2259	 5264.09491643972 
2260	 5216.11201924436 
2261	 5167.7231299086 
2262	 5116.92150009605 
2263	 5069.31835892076 
2264	 5014.1183495496 
2265	 4970.37696106216 
2266	 4940.05040635692 
2267	 4898.43270335571 
2268	 4854.53830872607 
2269	 4817.64543854722 
2270	 4771.47003506465 
2271	 4723.91228503445 
2272	 4684.00370361233 
2273	 4645.49762891394 
2274	 4614.12334678962 
2275	 4589.4499065885 
2276	 4565.79613075789 
2277	 4542.30814396745 
2278	 4514.32931967945 
2279	 4478.37669961602 
2280	 4446.20203031159 
2281	 4416.50231228736 
2282	 4379.43232120814 
2283	 4356.78498039278 
2284	 4337.99618101788 
2285	 4305.95564403097 
2286	 4282.44203270805 
2287	 4254.63439798705 
2288	 4227.88243236829 
2289	 4206.89385793546 
2290	 4175.40554257272 
2291	 4138.44953683969 
2292	 4103.82755664957 
2293	 4058.2730841751 
2294	 4023.60973221468 
2295	 4000.11500546871 
2296	 3965.21111172615 
2297	 3929.09848660835 
2298	 3886.99371426607 
2299	 3833.9901462314 
2300	 3792.31797365563 
2301	 3750.34005591919 
2302	 3716.12805623665 
2303	 3689.55192076991 
2304	 3650.8284669885 
2305	 3608.30786373998 
2306	 3573.62175765898 
2307	 3537.74475304797 
2308	 3504.28407017964 
2309	 3484.18655542404 
2310	 3458.96407944027 
2311	 3424.91999729643 
2312	 3386.30948459602 
2313	 3338.0352826544 
2314	 3291.29542567952 
2315	 3263.45441230155 
2316	 3253.00833589178 
2317	 3239.93251374804 
2318	 3226.18013002039 
2319	 3206.81084242556 
2320	 3174.23592778661 
2321	 3139.91548351714 
2322	 3100.91017756979 
2323	 3053.68797297116 
2324	 3015.02799678826 
2325	 2989.94059646312 
2326	 2968.84340697289 
2327	 2947.50685491812 
2328	 2926.84403138983 
2329	 2905.05958080912 
2330	 2873.05523014666 
2331	 2839.51910270847 
2332	 2801.19175663941 
2333	 2773.16707001708 
2334	 2744.88433121642 
2335	 2718.98860683573 
2336	 2708.64621542567 
2337	 2684.04003586896 
2338	 2646.57536916421 
2339	 2613.53256134166 
2340	 2576.80042093694 
2341	 2548.63983885963 
2342	 2526.81714530191 
2343	 2500.49532992898 
2344	 2476.70884113034 
2345	 2450.32802266106 
2346	 2417.29358978823 
2347	 2388.41639975955 
2348	 2361.09672009999 
2349	 2339.78867101995 
2350	 2316.81159168377 
2351	 2303.15413108129 
2352	 2297.11993533004 
2353	 2279.87242642874 
2354	 2255.70544884878 
2355	 2229.02694930559 
2356	 2190.85383480304 
2357	 2156.92862031369 
2358	 2142.44688066281 
2359	 2123.98050566257 
2360	 2107.20178515587 
2361	 2099.10923662128 
2362	 2077.83899707629 
2363	 2054.88414152853 
2364	 2039.75696149541 
2365	 2025.8147633003 
2366	 2004.74337558286 
2367	 1983.47882992883 
2368	 1972.30119409511 
2369	 1946.71224847493 
2370	 1922.66421189695 
2371	 1903.66303070066 
2372	 1860.48488975662 
2373	 1828.64238344734 
2374	 1807.09790772237 
2375	 1782.88251000785 
2376	 1770.34165264406 
2377	 1750.81671277209 
2378	 1727.37866109315 
2379	 1709.45997740724 
2380	 1691.45678402448 
2381	 1682.66775758885 
2382	 1671.48321704474 
2383	 1651.87265492917 
2384	 1630.43876185595 
2385	 1596.43339060256 
2386	 1575.54690082302 
2387	 1557.04812939089 
2388	 1536.61064416725 
2389	 1538.59700805398 
2390	 1528.03679873359 
2391	 1515.34560731563 
2392	 1505.94129599942 
2393	 1477.49894844871 
2394	 1449.3552447402 
2395	 1422.62001569687 
2396	 1399.08078528442 
2397	 1383.02797627699 
2398	 1368.70493835559 
2399	 1351.08995458173 
2400	 1331.67886469354 
2401	 1313.70812921221 
2402	 1287.73436726957 
2403	 1267.98695895916 
2404	 1256.35486544971 
2405	 1239.86935502003 
2406	 1227.25589413403 
2407	 1216.16510372439 
2408	 1201.71694613538 
2409	 1189.37903852862 
2410	 1173.11127433546 
2411	 1150.88067997512 
2412	 1124.97417159488 
2413	 1106.41352490271 
2414	 1100.53517648371 
2415	 1096.69616240646 
2416	 1094.97248262165 
2417	 1085.85121298966 
2418	 1060.96219720816 
2419	 1034.130756019 
2420	 1017.77595040583 
2421	 997.384782276387 
2422	 987.369474333245 
2423	 984.933638002939 
2424	 968.384542669496 
2425	 961.146403911257 
2426	 951.835363726672 
2427	 932.872618647594 
2428	 915.939212538356 
2429	 900.376770289629 
2430	 883.475222925489 
2431	 867.451555572143 
2432	 856.486810257344 
2433	 841.691161869785 
2434	 831.863542542553 
2435	 825.27383811771 
2436	 810.62025157276 
2437	 802.722481635295 
2438	 795.277917969913 
2439	 776.726645406092 
2440	 761.43567659928 
2441	 749.229318832979 
2442	 738.36565975134 
2443	 723.506675603632 
2444	 708.261119528082 
2445	 697.866281256088 
2446	 679.332497955429 
2447	 671.447021720224 
2448	 676.911463838682 
2449	 681.975885473873 
2450	 684.309572998842 
2451	 672.075177047284 
2452	 660.345583486556 
2453	 650.488599154611 
2454	 638.55354607103 
2455	 638.347694277977 
2456	 631.548874631374 
2457	 616.931082088466 
2458	 601.203999787902 
2459	 584.394665065415 
2460	 575.906221336152 
2461	 561.02311561102 
2462	 550.286820797977 
2463	 551.473710370619 
2464	 541.902530065823 
2465	 534.98166010367 
2466	 527.075707931755 
2467	 505.785311950867 
2468	 491.607229114797 
2469	 482.640705835392 
2470	 479.799596976089 
2471	 486.804403614721 
2472	 489.720979568746 
2473	 483.731418493763 
2474	 473.207200837214 
2475	 465.800557172107 
2476	 458.92060418446 
2477	 451.172600791773 
2478	 444.385515053599 
2479	 432.540797376085 
2480	 418.722154619041 
2481	 416.094529606745 
2482	 415.954996703554 
2483	 410.32330144608 
2484	 405.003597228656 
2485	 395.608372636351 
2486	 392.200731148823 
2487	 396.407985996874 
2488	 397.708328883919 
2489	 400.762221151054 
2490	 391.454267806717 
2491	 374.613846896646 
2492	 374.843415696573 
2493	 377.494797044154 
2494	 382.127362394933 
2495	 385.493885999739 
2496	 371.238081365971 
2497	 352.365604531767 
2498	 339.503726263246 
2499	 335.438687973519 
2500	 330.618213277433 
