Wavelength	spectrum00000.asd
350	 16.1517640099213 
351	 17.3139732766312 
352	 17.8296490118024 
353	 18.2550704803269 
354	 19.3778123057549 
355	 21.4057769381421 
356	 22.8023454791514 
357	 23.4005524532003 
358	 24.2077591540553 
359	 24.4912822326091 
360	 26.0670015931592 
361	 29.1764730972623 
362	 29.4438906935581 
363	 29.4884751284917 
364	 31.6923681500907 
365	 37.0656237878276 
366	 38.4122570392151 
367	 39.3837759945424 
368	 41.5621278020453 
369	 42.9748967196008 
370	 44.3114505511828 
371	 47.1109076140267 
372	 51.4907596917371 
373	 52.1129370301656 
374	 53.217187242747 
375	 55.5253038878525 
376	 57.4425427046325 
377	 59.5343944422296 
378	 62.0152342789651 
379	 64.5504863236816 
380	 65.6566201409864 
381	 68.5564496213855 
382	 72.7489180066049 
383	 76.303156607924 
384	 77.7338670690123 
385	 79.4491383178316 
386	 82.2117468900058 
387	 84.8168071613917 
388	 88.2022211085556 
389	 91.2578598027769 
390	 93.5745315692441 
391	 98.289808080429 
392	 102.302956498676 
393	 104.803027699867 
394	 106.684092551563 
395	 111.032540552353 
396	 114.160507575611 
397	 115.195356558714 
398	 119.701903453604 
399	 125.456542849424 
400	 130.525812736941 
401	 133.840850587133 
402	 138.888122812234 
403	 143.419777021372 
404	 147.219001930697 
405	 152.406665223476 
406	 157.293008884646 
407	 162.663917692754 
408	 169.058168268907 
409	 174.662695298629 
410	 180.504926979201 
411	 186.770965580097 
412	 193.207896487372 
413	 200.379467793335 
414	 208.811868160232 
415	 217.913866255542 
416	 224.885534172033 
417	 233.453599691673 
418	 242.493536842652 
419	 249.873010613049 
420	 258.106884511092 
421	 268.713992317456 
422	 280.694991664183 
423	 290.358554040884 
424	 299.542185773144 
425	 310.67780545972 
426	 324.421473325065 
427	 335.057234738057 
428	 345.0778386696 
429	 356.216197914937 
430	 369.344283217866 
431	 381.822532263508 
432	 394.297988733171 
433	 407.110581274231 
434	 418.714401756572 
435	 429.855922954616 
436	 441.489125710544 
437	 454.44407291013 
438	 467.803681383519 
439	 480.779789738127 
440	 493.139696607734 
441	 505.368050465172 
442	 518.066384688412 
443	 530.463382781185 
444	 541.8265300625 
445	 553.502776562749 
446	 564.377558666336 
447	 574.467278886688 
448	 584.859436074878 
449	 596.092950891965 
450	 606.991853174594 
451	 616.386805455325 
452	 623.994222663517 
453	 631.113551036077 
454	 638.743793353631 
455	 647.29801207597 
456	 653.81497251116 
457	 659.395885885309 
458	 665.087296336462 
459	 670.946650331382 
460	 675.859053515003 
461	 680.254900070869 
462	 684.929631791844 
463	 689.043764125315 
464	 693.280345134544 
465	 697.971942986331 
466	 702.922756130446 
467	 707.6373370453 
468	 712.243402505905 
469	 716.944846661798 
470	 721.477909752935 
471	 726.334213826563 
472	 731.447303184901 
473	 736.335435412249 
474	 741.622691943406 
475	 746.344680977983 
476	 750.76344376826 
477	 759.294038126426 
478	 766.219199450196 
479	 771.245507573569 
480	 776.855467732793 
481	 783.562214768968 
482	 789.226895689105 
483	 793.443677771513 
484	 799.199573939946 
485	 806.519304896608 
486	 814.245418730964 
487	 820.919131548321 
488	 826.480670682403 
489	 833.081713631952 
490	 841.001070038943 
491	 848.241017647893 
492	 856.931120262934 
493	 866.011060356199 
494	 874.476930038942 
495	 884.293033379196 
496	 896.01756513973 
497	 908.490198028365 
498	 919.434732562104 
499	 931.381122147077 
500	 944.456194980169 
501	 958.572104923648 
502	 974.364045446167 
503	 990.347102145195 
504	 1006.13318457803 
505	 1022.2171163214 
506	 1041.06110508701 
507	 1060.6966009374 
508	 1080.74350294929 
509	 1104.65067421154 
510	 1128.33029713823 
511	 1152.16955632295 
512	 1178.00657084306 
513	 1205.87865361464 
514	 1236.86563623033 
515	 1270.27473766458 
516	 1303.32344191145 
517	 1341.26708383785 
518	 1380.51265467202 
519	 1417.79389905906 
520	 1459.94554955338 
521	 1503.71492095853 
522	 1548.22726703453 
523	 1594.64909035777 
524	 1642.90648654894 
525	 1691.21874981769 
526	 1738.66773448856 
527	 1787.33059436617 
528	 1836.52149554627 
529	 1885.36556628532 
530	 1932.96760851172 
531	 1979.72419379373 
532	 2026.92465361675 
533	 2074.46434893142 
534	 2119.40341782615 
535	 2164.9843965366 
536	 2209.94765537739 
537	 2252.0465247612 
538	 2293.4627373513 
539	 2334.95277118649 
540	 2375.831926263 
541	 2413.766868862 
542	 2451.71680032273 
543	 2490.56743301142 
544	 2530.54175245429 
545	 2572.21811331521 
546	 2610.92862037586 
547	 2647.81321933368 
548	 2688.65274503405 
549	 2726.62148957094 
550	 2763.08128448501 
551	 2800.24112436156 
552	 2838.90577877398 
553	 2872.57403247263 
554	 2902.06389619837 
555	 2931.72196991933 
556	 2955.33407906861 
557	 2976.08329712382 
558	 2995.96850137031 
559	 3012.58325996515 
560	 3026.8099267024 
561	 3036.8484254068 
562	 3040.99611937881 
563	 3044.24147873841 
564	 3043.42774987015 
565	 3038.29936131753 
566	 3033.00838869029 
567	 3024.38093748607 
568	 3011.836624507 
569	 2996.71711674468 
570	 2984.12331754201 
571	 2975.52817127847 
572	 2970.94965013516 
573	 2969.04467821669 
574	 2966.98943545234 
575	 2966.11389489186 
576	 2968.49684449126 
577	 2976.00494654894 
578	 2984.82920880134 
579	 2995.70650602919 
580	 3011.3686159032 
581	 3027.56712052689 
582	 3043.48891347937 
583	 3058.21966309282 
584	 3069.96863572824 
585	 3076.30786009921 
586	 3079.76874271726 
587	 3084.03888796842 
588	 3086.33144670381 
589	 3089.05727593528 
590	 3091.86123479262 
591	 3090.68327974061 
592	 3089.87436754433 
593	 3087.40503768641 
594	 3081.31278288869 
595	 3075.97512081237 
596	 3071.42514988199 
597	 3067.62143899648 
598	 3064.57605125664 
599	 3064.24652903119 
600	 3064.14438431566 
601	 3062.47301773397 
602	 3060.99799062617 
603	 3060.98160821551 
604	 3060.96817926286 
605	 3058.21214296909 
606	 3052.65185084288 
607	 3046.64381574755 
608	 3041.57898795243 
609	 3036.82966646385 
610	 3032.54231945842 
611	 3027.86120308404 
612	 3021.69384529368 
613	 3012.97005190467 
614	 3007.10584719067 
615	 3004.74997224994 
616	 3001.26974318019 
617	 2998.49475047746 
618	 2996.45695910159 
619	 2995.50211867735 
620	 2998.05849111676 
621	 3002.18663041775 
622	 3006.88502052058 
623	 3011.85104709874 
624	 3017.01252200926 
625	 3023.89160875568 
626	 3033.31156258035 
627	 3044.65593097371 
628	 3054.13095989648 
629	 3062.1343812468 
630	 3070.56309648185 
631	 3078.43853925817 
632	 3084.49389079342 
633	 3088.57265146105 
634	 3091.95946213488 
635	 3090.85799473548 
636	 3086.8868840375 
637	 3082.49715613581 
638	 3077.33580190317 
639	 3070.4084806205 
640	 3061.67139829188 
641	 3051.9697126069 
642	 3042.94974456315 
643	 3035.17308674339 
644	 3028.35912385515 
645	 3020.91516588369 
646	 3013.48066302821 
647	 3006.62366296174 
648	 3001.03296836579 
649	 2997.5875809266 
650	 2997.23151061023 
651	 2999.79689086493 
652	 3003.72109469432 
653	 3006.33741503494 
654	 3009.70676793362 
655	 3015.86425554134 
656	 3020.84869395221 
657	 3024.99597957471 
658	 3029.5529972852 
659	 3036.23385917042 
660	 3042.73731997029 
661	 3049.65567877231 
662	 3058.07023093425 
663	 3069.21748017768 
664	 3080.52293907368 
665	 3092.05652728543 
666	 3105.02969276444 
667	 3119.22301659665 
668	 3134.96882831057 
669	 3152.36285187965 
670	 3171.13561692455 
671	 3192.03161099309 
672	 3214.18199056375 
673	 3236.9137553947 
674	 3262.05857033343 
675	 3288.48434911659 
676	 3315.34637456306 
677	 3342.44419858084 
678	 3374.43533686352 
679	 3408.00501543958 
680	 3441.20661674532 
681	 3477.90837471565 
682	 3516.09544804767 
683	 3556.28685620679 
684	 3600.01109039792 
685	 3648.66575611991 
686	 3700.33400868644 
687	 3755.31182052899 
688	 3816.71344250102 
689	 3887.104405193 
690	 3965.52793908533 
691	 4052.27267550213 
692	 4154.4330874489 
693	 4268.94907488878 
694	 4397.79756215844 
695	 4545.51574310826 
696	 4709.45547708949 
697	 4894.1624904306 
698	 5100.99063782274 
699	 5324.55313260528 
700	 5571.13770588405 
701	 5835.91020263173 
702	 6112.187559213 
703	 6402.73210002141 
704	 6704.19167977556 
705	 7014.92688108058 
706	 7334.79723295026 
707	 7659.80422401275 
708	 7991.68095723927 
709	 8332.24256862339 
710	 8681.34104644641 
711	 9035.09467850568 
712	 9393.68060986575 
713	 9758.86177605152 
714	 10130.0393964669 
715	 10507.2631728333 
716	 10889.1613088346 
717	 11272.8650379825 
718	 11659.5208498231 
719	 12052.1903973701 
720	 12451.3756914811 
721	 12849.6595081708 
722	 13246.658288779 
723	 13641.0482277536 
724	 14031.4451924267 
725	 14418.541281128 
726	 14800.821955491 
727	 15179.2269149589 
728	 15558.332284699 
729	 15928.3451017103 
730	 16291.9201582173 
731	 16651.5537272164 
732	 16996.4853225946 
733	 17336.973957452 
734	 17673.1815693799 
735	 17998.79941718 
736	 18313.5563295826 
737	 18621.5173891555 
738	 18924.3943982352 
739	 19219.1782208004 
740	 19509.1387562534 
741	 19791.8782298774 
742	 20064.6868450129 
743	 20331.3552832409 
744	 20583.1915641371 
745	 20817.9829249564 
746	 21040.7920226671 
747	 21276.6897991989 
748	 21508.6907628032 
749	 21728.9881388407 
750	 21955.9276932704 
751	 22172.8835459047 
752	 22384.6001125478 
753	 22597.6946638166 
754	 22798.8747482431 
755	 22997.0511291439 
756	 23196.7327287755 
757	 23397.5534830464 
758	 23589.7775630754 
759	 23770.3941946197 
760	 23943.4011526538 
761	 24122.098691055 
762	 24301.6335323604 
763	 24481.7299704512 
764	 24660.3561898762 
765	 24825.373790846 
766	 24985.4006196525 
767	 25141.0988646047 
768	 25288.5565388114 
769	 25437.7407211763 
770	 25579.3066498083 
771	 25716.7367534677 
772	 25876.5183086441 
773	 26028.5023975195 
774	 26160.3450315135 
775	 26269.7680422342 
776	 26368.7617863833 
777	 26456.1977227125 
778	 26533.2600780826 
779	 26603.5383553333 
780	 26678.4835195252 
781	 26748.1548650845 
782	 26807.7578687606 
783	 26862.1562582846 
784	 26914.5384743446 
785	 26962.4165363109 
786	 27003.3116895044 
787	 27039.3102881438 
788	 27068.0829652817 
789	 27089.3989161678 
790	 27104.8670430408 
791	 27120.1323384407 
792	 27130.2218031782 
793	 27134.0776499431 
794	 27135.1258529465 
795	 27130.4739789169 
796	 27121.9433377382 
797	 27109.7760545121 
798	 27089.1797646183 
799	 27064.0245658305 
800	 27033.4887162213 
801	 26995.6755501697 
802	 26951.8732170273 
803	 26895.2341943103 
804	 26831.9044321076 
805	 26775.5179235589 
806	 26717.820815203 
807	 26656.6205570323 
808	 26591.9910852465 
809	 26526.2064742211 
810	 26450.6027126642 
811	 26371.0117076912 
812	 26293.3971442125 
813	 26214.7907127962 
814	 26124.5667754197 
815	 26023.1931044039 
816	 25915.9874077008 
817	 25801.6514021637 
818	 25686.6390910168 
819	 25571.6007717318 
820	 25452.1958537663 
821	 25334.4660931335 
822	 25210.8223065283 
823	 25078.8918787205 
824	 24948.0944071459 
825	 24814.0394390118 
826	 24677.0259646926 
827	 24537.5395277292 
828	 24392.2433546428 
829	 24250.1014292373 
830	 24108.4361755342 
831	 23960.7852769148 
832	 23815.8761119288 
833	 23666.9669394316 
834	 23511.9137207709 
835	 23354.2943779835 
836	 23201.2057758978 
837	 23053.6294496762 
838	 22910.5236556421 
839	 22769.7593208738 
840	 22628.7264119329 
841	 22486.4361737782 
842	 22343.0496340914 
843	 22199.7945152449 
844	 22058.601695936 
845	 21919.7591414255 
846	 21782.6456265019 
847	 21646.3579146023 
848	 21514.5798411102 
849	 21384.8767417618 
850	 21251.3030295111 
851	 21123.6297711739 
852	 20994.1373439199 
853	 20861.8091651672 
854	 20736.5333253221 
855	 20604.2552673738 
856	 20469.8456714038 
857	 20339.584028272 
858	 20213.3197508006 
859	 20090.8918161832 
860	 19972.0949367451 
861	 19854.8221550137 
862	 19731.7343991239 
863	 19599.2881049229 
864	 19463.6660549967 
865	 19333.6207534544 
866	 19199.3366680567 
867	 19065.300202072 
868	 18931.8527549315 
869	 18795.5177084296 
870	 18661.0890009842 
871	 18524.8814541794 
872	 18386.0347457605 
873	 18248.7906595084 
874	 18107.4512243039 
875	 17964.336788562 
876	 17822.0967913883 
877	 17680.2029972929 
878	 17539.1115268214 
879	 17399.4628036949 
880	 17260.1991724079 
881	 17114.9055469902 
882	 16967.8436252391 
883	 16822.7376629935 
884	 16681.0842420515 
885	 16535.9811297428 
886	 16389.479454656 
887	 16241.9533370892 
888	 16092.9469271987 
889	 15946.4974108606 
890	 15799.8367394022 
891	 15653.5131514592 
892	 15510.9696595389 
893	 15360.620333478 
894	 15211.9624873808 
895	 15068.5770246581 
896	 14921.4200361843 
897	 14776.7876494814 
898	 14634.3128711041 
899	 14492.0631251689 
900	 14347.760623258 
901	 14208.2413813454 
902	 14068.5382261438 
903	 13923.9326490332 
904	 13779.5774658584 
905	 13641.0575780084 
906	 13506.3821231598 
907	 13370.9879039278 
908	 13233.7655262765 
909	 13095.4954774358 
910	 12959.0940381608 
911	 12827.1784351411 
912	 12696.1409841262 
913	 12563.9002981356 
914	 12430.4817847278 
915	 12297.9093334571 
916	 12170.941244118 
917	 12044.9430066223 
918	 11918.2085355666 
919	 11792.1841732142 
920	 11664.9361488309 
921	 11538.2139174385 
922	 11413.3870771475 
923	 11290.5811556377 
924	 11166.8221468306 
925	 11042.6850374577 
926	 10918.7054681089 
927	 10794.598019177 
928	 10673.1602604586 
929	 10551.6049720381 
930	 10427.6106608549 
931	 10301.62933376 
932	 10180.7313764803 
933	 10060.2947468383 
934	 9936.93133091257 
935	 9815.31194531217 
936	 9699.67531715469 
937	 9585.33674830997 
938	 9468.87828005608 
939	 9356.46821203803 
940	 9240.61334685961 
941	 9124.87634532547 
942	 9012.67757993655 
943	 8897.27318724333 
944	 8781.79000923894 
945	 8666.5740773599 
946	 8551.50913906276 
947	 8437.69177443177 
948	 8325.77815178705 
949	 8212.34373679995 
950	 8095.42815492578 
951	 7983.39450375666 
952	 7872.07031239224 
953	 7761.83213558916 
954	 7653.83132682195 
955	 7544.53468441559 
956	 7436.11694999124 
957	 7329.19612821876 
958	 7223.42394321665 
959	 7117.94077819224 
960	 7013.64073164569 
961	 6910.36966460541 
962	 6807.66052735124 
963	 6706.05949987365 
964	 6605.7105465737 
965	 6506.82874086586 
966	 6409.13948742489 
967	 6310.18097909546 
968	 6212.89627554692 
969	 6117.51914125204 
970	 6022.95873469504 
971	 5929.57235659835 
972	 5836.81157359154 
973	 5744.51782064798 
974	 5653.08374164575 
975	 5564.17500229467 
976	 5475.55556368175 
977	 5387.53248213443 
978	 5301.18458499537 
979	 5214.89925021554 
980	 5128.74794797147 
981	 5043.50779329528 
982	 4960.24332107445 
983	 4880.00144163892 
984	 4799.05331186137 
985	 4718.48687580534 
986	 4640.31731605258 
987	 4561.08951702095 
988	 4483.67486965802 
989	 4406.72078831906 
990	 4328.92271499934 
991	 4255.25873012555 
992	 4181.6274461907 
993	 4109.7408398302 
994	 4040.5986511122 
995	 3966.22593896667 
996	 3894.84684799801 
997	 3826.31473416963 
998	 3758.16504224591 
999	 3689.68436830856 
1000	 3622.1595529099 
1001	 7872.88382090683 
1002	 7911.62119641881 
1003	 7954.87854650579 
1004	 8001.36673529241 
1005	 8047.49388934224 
1006	 8096.92276444968 
1007	 8150.18043493875 
1008	 8203.77580359704 
1009	 8260.74221437714 
1010	 8322.52409225176 
1011	 8384.54594711668 
1012	 8450.90724284507 
1013	 8523.84631673828 
1014	 8594.55669299811 
1015	 8661.87775543577 
1016	 8737.54914153755 
1017	 8814.38703142981 
1018	 8901.29258281678 
1019	 8993.06288415123 
1020	 9087.378363066 
1021	 9175.75478377495 
1022	 9259.14919935331 
1023	 9344.59390465574 
1024	 9435.26657112058 
1025	 9526.22758905814 
1026	 9627.68803814825 
1027	 9712.64907185148 
1028	 9791.3689418241 
1029	 9867.82296350956 
1030	 9935.67190863832 
1031	 10004.2742673215 
1032	 10068.0156248268 
1033	 10122.71955311 
1034	 10172.5802386709 
1035	 10217.0861166239 
1036	 10257.7767010646 
1037	 10295.0992678461 
1038	 10328.8258919942 
1039	 10360.8069268879 
1040	 10391.0883231268 
1041	 10420.184562186 
1042	 10448.8380151828 
1043	 10471.6769741595 
1044	 10483.1511592171 
1045	 10491.7773371084 
1046	 10498.1600741373 
1047	 10503.8771972372 
1048	 10511.24461187 
1049	 10517.1980277352 
1050	 10521.0031853397 
1051	 10519.957447389 
1052	 10516.9054564842 
1053	 10520.2240441793 
1054	 10526.3316015813 
1055	 10532.7711432095 
1056	 10542.1811449735 
1057	 10565.3919091049 
1058	 10590.5248164965 
1059	 10617.4929121456 
1060	 10651.4531886603 
1061	 10676.8065373734 
1062	 10702.1255668542 
1063	 10737.750698032 
1064	 10779.4607502579 
1065	 10830.1264897412 
1066	 10889.4595284411 
1067	 10951.0568663364 
1068	 11016.5155234786 
1069	 11080.2063360305 
1070	 11154.6891490903 
1071	 11241.757984563 
1072	 11331.6402884861 
1073	 11430.3422828167 
1074	 11535.5809962435 
1075	 11638.707552286 
1076	 11747.0026571667 
1077	 11870.7519188296 
1078	 12010.4916140429 
1079	 12152.7318994911 
1080	 12296.6989628541 
1081	 12447.6827970244 
1082	 12601.5200216228 
1083	 12751.4878760345 
1084	 12910.4014194223 
1085	 13078.8062496765 
1086	 13249.7431732351 
1087	 13419.2335489198 
1088	 13584.5553669748 
1089	 13748.1925789618 
1090	 13910.8729295234 
1091	 14073.7003726927 
1092	 14235.3258824119 
1093	 14395.3519266287 
1094	 14556.8910928238 
1095	 14710.9800202063 
1096	 14860.6961757851 
1097	 15009.3238856284 
1098	 15148.8452659294 
1099	 15285.9701004743 
1100	 15425.3839108152 
1101	 15557.616967194 
1102	 15692.3898146817 
1103	 15823.98080861 
1104	 15943.6021017795 
1105	 16062.3054805761 
1106	 16179.723916522 
1107	 16292.6088597932 
1108	 16405.1988565202 
1109	 16521.8283318199 
1110	 16628.5544726523 
1111	 16728.776972915 
1112	 16826.4149066175 
1113	 16921.4404507223 
1114	 17010.2090577423 
1115	 17103.4661526237 
1116	 17193.9386497216 
1117	 17276.7321757072 
1118	 17361.3920626456 
1119	 17443.8491774787 
1120	 17518.8652814486 
1121	 17602.2786686703 
1122	 17694.0842782473 
1123	 17776.6921966111 
1124	 17859.3110358864 
1125	 17938.5314706832 
1126	 18014.6903082296 
1127	 18079.8903591859 
1128	 18148.9127896771 
1129	 18226.7578362405 
1130	 18299.5765792272 
1131	 18375.9604828864 
1132	 18444.712475963 
1133	 18509.1389045386 
1134	 18575.1817650246 
1135	 18634.8869904471 
1136	 18700.265936038 
1137	 18773.7537341254 
1138	 18839.4200469933 
1139	 18906.0544436472 
1140	 18963.7824146081 
1141	 19015.9495888707 
1142	 19062.6399880108 
1143	 19102.7516533214 
1144	 19146.9466604825 
1145	 19185.2426612573 
1146	 19224.395053103 
1147	 19266.0376553658 
1148	 19306.8235636805 
1149	 19348.5214066211 
1150	 19391.9643975349 
1151	 19437.6598627651 
1152	 19483.9037741685 
1153	 19532.1577930383 
1154	 19587.8108495609 
1155	 19636.3424945116 
1156	 19681.7807116106 
1157	 19728.207939469 
1158	 19765.3409088406 
1159	 19802.3902833657 
1160	 19849.5650875909 
1161	 19889.3080547766 
1162	 19930.8982731333 
1163	 19978.5530523018 
1164	 20019.5219340902 
1165	 20055.2008841797 
1166	 20092.1372750424 
1167	 20127.6899890409 
1168	 20161.9205883278 
1169	 20196.4995640832 
1170	 20226.356067075 
1171	 20251.5696124085 
1172	 20279.9300880944 
1173	 20304.5955409558 
1174	 20328.334947414 
1175	 20350.7880459955 
1176	 20373.2635352023 
1177	 20394.891250436 
1178	 20412.7003826038 
1179	 20434.0832410259 
1180	 20460.7706845247 
1181	 20479.2085655502 
1182	 20492.859234108 
1183	 20509.5454549086 
1184	 20522.1666530381 
1185	 20537.2124163911 
1186	 20554.5820990189 
1187	 20574.0738567997 
1188	 20594.124437677 
1189	 20612.9054440751 
1190	 20637.6505775914 
1191	 20669.7100913184 
1192	 20693.480588203 
1193	 20716.6887473743 
1194	 20739.7457509854 
1195	 20754.72395961 
1196	 20780.6502287249 
1197	 20816.2811111076 
1198	 20844.4225646388 
1199	 20873.1128739334 
1200	 20902.358156848 
1201	 20926.1059498501 
1202	 20953.7516124351 
1203	 20984.1724266195 
1204	 21018.3111636848 
1205	 21050.0312755345 
1206	 21080.0113775789 
1207	 21113.232925959 
1208	 21147.4765598669 
1209	 21182.7057771626 
1210	 21220.5527483184 
1211	 21257.0161598304 
1212	 21293.8757251444 
1213	 21330.545967004 
1214	 21364.8187601011 
1215	 21402.9460346876 
1216	 21444.7423354258 
1217	 21483.4874014376 
1218	 21525.7843253828 
1219	 21563.7601715172 
1220	 21597.6474890292 
1221	 21630.2829309613 
1222	 21662.4226681255 
1223	 21691.2977835719 
1224	 21723.9789101312 
1225	 21759.6898480887 
1226	 21789.809957239 
1227	 21821.3819803697 
1228	 21846.9567573816 
1229	 21864.1765879831 
1230	 21885.6387294562 
1231	 21908.1189112003 
1232	 21927.1943020741 
1233	 21948.4799386372 
1234	 21963.5689344011 
1235	 21972.6406697629 
1236	 21980.8032114016 
1237	 21986.4790970451 
1238	 21988.1296486566 
1239	 21990.9902093661 
1240	 21994.5518952841 
1241	 21992.0158410336 
1242	 21988.2944543619 
1243	 21979.0587384123 
1244	 21961.715732757 
1245	 21947.7167541164 
1246	 21929.6796333892 
1247	 21915.9036841714 
1248	 21903.304472256 
1249	 21892.4621892393 
1250	 21887.3338212345 
1251	 21877.0304387308 
1252	 21864.2132842769 
1253	 21852.8668950951 
1254	 21840.937269935 
1255	 21825.8746963189 
1256	 21813.9267704926 
1257	 21806.5629426395 
1258	 21792.0830492689 
1259	 21773.3196733227 
1260	 21758.036140865 
1261	 21742.8214209155 
1262	 21724.3233786711 
1263	 21710.0545492399 
1264	 21686.6074171115 
1265	 21654.7685936843 
1266	 21623.8124242196 
1267	 21594.9510150206 
1268	 21555.1641513504 
1269	 21506.6168787767 
1270	 21458.8271222423 
1271	 21404.9846532884 
1272	 21347.0154094792 
1273	 21290.1397392091 
1274	 21237.0788473304 
1275	 21175.6693007628 
1276	 21108.9968630106 
1277	 21040.251198623 
1278	 20966.149074444 
1279	 20894.195463047 
1280	 20819.5386442245 
1281	 20746.0217968247 
1282	 20670.9712806486 
1283	 20600.3077847797 
1284	 20529.6085690651 
1285	 20462.9705471531 
1286	 20399.0915575634 
1287	 20339.9475338976 
1288	 20280.0625665885 
1289	 20229.3444635054 
1290	 20185.0236558331 
1291	 20151.4012061139 
1292	 20113.8185761 
1293	 20079.3645973736 
1294	 20051.4941128689 
1295	 20024.1405941644 
1296	 20002.820570351 
1297	 19987.790158667 
1298	 19980.2831389864 
1299	 19980.8352700972 
1300	 19978.6944426025 
1301	 19982.3411617062 
1302	 19987.9586568227 
1303	 19985.1991825964 
1304	 19996.6857908191 
1305	 20029.2959105623 
1306	 20049.5574809002 
1307	 20068.3705177152 
1308	 20088.7305431493 
1309	 20106.4576600967 
1310	 20120.8389515471 
1311	 20148.5537461682 
1312	 20190.2197279242 
1313	 20221.3917425679 
1314	 20256.9910920726 
1315	 20283.9851977819 
1316	 20300.2295191883 
1317	 20324.8190956115 
1318	 20350.0380914535 
1319	 20375.8166842498 
1320	 20408.3229631225 
1321	 20434.5662379976 
1322	 20460.2449290954 
1323	 20479.3591704555 
1324	 20487.7235458842 
1325	 20502.7719039411 
1326	 20516.2668449691 
1327	 20531.6091768272 
1328	 20550.6898850442 
1329	 20573.6340062573 
1330	 20585.6719636898 
1331	 20590.6723051919 
1332	 20599.2049767254 
1333	 20604.4762827794 
1334	 20609.6180775075 
1335	 20618.4963150223 
1336	 20619.8745390871 
1337	 20617.8422892421 
1338	 20610.7602693195 
1339	 20598.2020390047 
1340	 20584.1980256025 
1341	 20567.1473368704 
1342	 20545.624418441 
1343	 20524.0327985406 
1344	 20494.5601855986 
1345	 20462.3489438173 
1346	 20418.9038465739 
1347	 20365.2407053164 
1348	 20307.676432337 
1349	 20245.1608749092 
1350	 20168.9737406572 
1351	 20082.8945966293 
1352	 19987.5437930667 
1353	 19885.7249035159 
1354	 19760.3800767794 
1355	 19659.8212915471 
1356	 19570.7402458788 
1357	 19469.9123433267 
1358	 19372.8223611006 
1359	 19273.0350406704 
1360	 19137.8510751325 
1361	 19056.5832363495 
1362	 18992.8594907011 
1363	 18957.1712096051 
1364	 18976.7744815656 
1365	 18979.0010528221 
1366	 18993.5555715016 
1367	 19006.5296372684 
1368	 19009.6740923549 
1369	 19026.1075915778 
1370	 19058.1485029319 
1371	 19092.3510739468 
1372	 19110.6101303517 
1373	 19145.6668448545 
1374	 19122.6276719991 
1375	 19087.4165430911 
1376	 18988.0170761168 
1377	 18837.5828417689 
1378	 18663.8510053055 
1379	 18412.6432407099 
1380	 18206.0757287887 
1381	 17957.9660089679 
1382	 17787.2362400694 
1383	 17659.1738848977 
1384	 17549.0754966378 
1385	 17521.9801160936 
1386	 17438.1129781367 
1387	 17367.0250016835 
1388	 17246.6792811843 
1389	 17091.670806984 
1390	 16901.0297052032 
1391	 16696.1711174605 
1392	 16471.3893431254 
1393	 16234.6773763585 
1394	 16005.8377660462 
1395	 15794.0680272848 
1396	 15582.7570208409 
1397	 15388.504013389 
1398	 15218.3015684229 
1399	 15041.7335646462 
1400	 14866.9338976533 
1401	 14698.9089014413 
1402	 14537.2109821618 
1403	 14379.3781069663 
1404	 14223.0845975018 
1405	 14077.2230361422 
1406	 13931.5677158795 
1407	 13806.2455388217 
1408	 13697.9998804001 
1409	 13594.6482090917 
1410	 13511.2563679372 
1411	 13423.6900744714 
1412	 13337.8077185146 
1413	 13254.2365813419 
1414	 13172.1735789026 
1415	 13093.536087483 
1416	 13018.5451776152 
1417	 12952.541658743 
1418	 12889.6684206678 
1419	 12824.1648434949 
1420	 12765.9905969557 
1421	 12710.8159721702 
1422	 12659.8333901269 
1423	 12613.5983584644 
1424	 12572.650095933 
1425	 12535.5341354238 
1426	 12500.5197000846 
1427	 12472.3697654234 
1428	 12442.9258886324 
1429	 12413.9716726791 
1430	 12388.2833473436 
1431	 12362.6212001234 
1432	 12343.0337101302 
1433	 12328.4131312702 
1434	 12314.5641649196 
1435	 12305.3264341425 
1436	 12296.9729127064 
1437	 12289.3505679469 
1438	 12283.8040709366 
1439	 12278.5020366753 
1440	 12278.9708656845 
1441	 12282.5741999176 
1442	 12287.3379044656 
1443	 12295.4425335825 
1444	 12299.5658180836 
1445	 12305.0557639929 
1446	 12307.0335877688 
1447	 12316.9942275465 
1448	 12333.1691450605 
1449	 12343.5941270181 
1450	 12357.1048184049 
1451	 12365.2568210737 
1452	 12364.7828839702 
1453	 12371.9569152468 
1454	 12380.7140428599 
1455	 12392.0759243925 
1456	 12408.6846428243 
1457	 12421.4120172843 
1458	 12434.0168934555 
1459	 12446.0844842528 
1460	 12456.182317886 
1461	 12467.7975415329 
1462	 12478.7374425371 
1463	 12491.7352127719 
1464	 12506.1915993362 
1465	 12521.3350249173 
1466	 12538.1204455501 
1467	 12556.2915111175 
1468	 12577.1791182956 
1469	 12592.6621094049 
1470	 12616.3960030584 
1471	 12643.5622423944 
1472	 12667.949607773 
1473	 12693.5908625109 
1474	 12721.9207683198 
1475	 12751.0137077378 
1476	 12778.1340958228 
1477	 12808.8056027628 
1478	 12835.7508378864 
1479	 12857.146168859 
1480	 12882.7928371643 
1481	 12911.3537742786 
1482	 12937.5137419481 
1483	 12962.2148540914 
1484	 12988.3339170713 
1485	 13014.4594483968 
1486	 13040.6475267978 
1487	 13066.0893729413 
1488	 13095.0377855752 
1489	 13126.3207572738 
1490	 13156.5083484963 
1491	 13189.9057319816 
1492	 13220.7883542181 
1493	 13251.2897358575 
1494	 13277.8650066379 
1495	 13301.4987734577 
1496	 13325.341458824 
1497	 13345.3255302441 
1498	 13366.8284436517 
1499	 13389.5006486066 
1500	 13412.3295932375 
1501	 13433.913573651 
1502	 13456.4099369317 
1503	 13484.8359391057 
1504	 13511.6040195013 
1505	 13538.8723904949 
1506	 13564.4399365671 
1507	 13591.1454060039 
1508	 13617.2372176726 
1509	 13640.6419809977 
1510	 13664.1225183496 
1511	 13686.8870834723 
1512	 13704.1688369654 
1513	 13727.4225353888 
1514	 13755.7934286611 
1515	 13780.4331067535 
1516	 13806.0706814943 
1517	 13828.9390629214 
1518	 13848.2377975995 
1519	 13869.8242942713 
1520	 13894.0277296749 
1521	 13911.7956815777 
1522	 13925.7970435542 
1523	 13942.152279451 
1524	 13954.0985741047 
1525	 13969.6169847739 
1526	 13992.8878393643 
1527	 14007.9464437917 
1528	 14017.7249912434 
1529	 14028.894534437 
1530	 14033.7850539324 
1531	 14044.7982688281 
1532	 14061.96537914 
1533	 14075.7844506279 
1534	 14090.2685325806 
1535	 14104.7235178409 
1536	 14119.2334610722 
1537	 14130.3971859403 
1538	 14139.5987540747 
1539	 14149.8400933907 
1540	 14156.5680646753 
1541	 14165.5309794046 
1542	 14175.4765536474 
1543	 14186.8945042497 
1544	 14195.6834709866 
1545	 14202.5810319889 
1546	 14210.9967843799 
1547	 14219.7693266926 
1548	 14227.1324273335 
1549	 14235.0473791185 
1550	 14240.5830648973 
1551	 14242.8313495071 
1552	 14248.415790733 
1553	 14254.4895248584 
1554	 14260.4489242765 
1555	 14268.3471670069 
1556	 14274.6899730026 
1557	 14278.1548299441 
1558	 14286.1903496737 
1559	 14298.453654766 
1560	 14305.0568871794 
1561	 14314.8355946853 
1562	 14315.8102938138 
1563	 14304.230710628 
1564	 14304.1076522207 
1565	 14305.9101019075 
1566	 14306.7983421778 
1567	 14314.6162968848 
1568	 14316.9170510666 
1569	 14316.1287782515 
1570	 14312.3280821067 
1571	 14303.775608321 
1572	 14299.8665796177 
1573	 14293.1962905432 
1574	 14289.9349566787 
1575	 14295.152722578 
1576	 14293.8564689199 
1577	 14287.7799547683 
1578	 14284.7047365582 
1579	 14281.1282161762 
1580	 14277.4905235252 
1581	 14275.1535699505 
1582	 14273.0898198955 
1583	 14271.9033493313 
1584	 14268.1692285902 
1585	 14266.3790550869 
1586	 14260.1803416877 
1587	 14245.5618757768 
1588	 14236.371318305 
1589	 14227.4712144434 
1590	 14219.8507635309 
1591	 14217.0204693084 
1592	 14212.6897897462 
1593	 14209.4500208426 
1594	 14203.2936416748 
1595	 14197.2199899746 
1596	 14187.0907553749 
1597	 14176.6287739227 
1598	 14161.464733516 
1599	 14153.5856847682 
1600	 14146.9256620465 
1601	 14143.0568133797 
1602	 14144.1895239116 
1603	 14141.835702385 
1604	 14140.4662739334 
1605	 14135.9238178883 
1606	 14132.3929503859 
1607	 14120.0874901523 
1608	 14101.5049605026 
1609	 14085.6677497351 
1610	 14064.259274151 
1611	 14047.3914117711 
1612	 14033.6241124674 
1613	 14019.4875423383 
1614	 14007.1247568671 
1615	 13989.3545137002 
1616	 13970.5404335669 
1617	 13951.1231058765 
1618	 13926.1425718391 
1619	 13905.7146190496 
1620	 13890.5744337774 
1621	 13867.6850360237 
1622	 13840.4612838297 
1623	 13817.0151458995 
1624	 13792.2480245289 
1625	 13767.2096084127 
1626	 13744.8353095659 
1627	 13719.3379535731 
1628	 13691.3433338813 
1629	 13661.9598392445 
1630	 13630.8191379611 
1631	 13601.249570356 
1632	 13568.7678507879 
1633	 13539.5771978959 
1634	 13516.0054698046 
1635	 13486.9394785366 
1636	 13457.0531526476 
1637	 13424.2642607129 
1638	 13385.7411264782 
1639	 13351.1361071587 
1640	 13317.7333477707 
1641	 13282.2791079185 
1642	 13247.4928151342 
1643	 13212.5690158437 
1644	 13175.5287405129 
1645	 13138.7333258953 
1646	 13102.4147113759 
1647	 13066.400219463 
1648	 13030.4274782438 
1649	 12993.8407327077 
1650	 12960.210300741 
1651	 12920.4861174388 
1652	 12876.0558864002 
1653	 12831.7933320559 
1654	 12785.1542710338 
1655	 12738.689355226 
1656	 12692.0092373081 
1657	 12644.333621023 
1658	 12594.0350485739 
1659	 12545.0492429404 
1660	 12498.1198604442 
1661	 12448.3008398195 
1662	 12397.9565291801 
1663	 12345.7598211779 
1664	 12287.1679986767 
1665	 12235.3689731154 
1666	 12186.5256937092 
1667	 12137.9255592684 
1668	 12091.9644453515 
1669	 12047.4882152568 
1670	 12006.2597476678 
1671	 11960.3445169936 
1672	 11912.3010689949 
1673	 11868.3570345519 
1674	 11822.7885726454 
1675	 11778.2375400416 
1676	 11740.5634828598 
1677	 11697.675845015 
1678	 11650.5801477208 
1679	 11603.9500160385 
1680	 11553.3938383656 
1681	 11508.4103829916 
1682	 11466.6525766533 
1683	 11422.9885760006 
1684	 11383.2519313643 
1685	 11340.639883889 
1686	 11297.3758813736 
1687	 11249.7925333852 
1688	 11198.0270780908 
1689	 11148.2768672233 
1690	 11091.7636776424 
1691	 11042.7828707882 
1692	 10999.8193487822 
1693	 10957.4263445322 
1694	 10922.4532680755 
1695	 10879.2098700626 
1696	 10829.9707616086 
1697	 10785.5453665709 
1698	 10739.1162702979 
1699	 10694.4946424073 
1700	 10655.5775663659 
1701	 10614.0602021908 
1702	 10568.8418526933 
1703	 10527.3415713857 
1704	 10488.8068321425 
1705	 10448.7600362116 
1706	 10409.5208142386 
1707	 10368.3065942649 
1708	 10323.0483784847 
1709	 10283.9621386173 
1710	 10248.3927655363 
1711	 10212.2089432435 
1712	 10183.1855111167 
1713	 10143.9211441897 
1714	 10098.0063542833 
1715	 10051.9723095784 
1716	 10001.576036971 
1717	 9951.57599733347 
1718	 9899.1588242369 
1719	 9851.7912580717 
1720	 9804.62023151249 
1721	 9758.5260768004 
1722	 9716.75040494259 
1723	 9672.9898470974 
1724	 9628.27075575828 
1725	 9584.60653752149 
1726	 9539.16190009284 
1727	 9500.21094653083 
1728	 9464.39106552226 
1729	 9430.44564683252 
1730	 9406.82185920799 
1731	 9368.68241842902 
1732	 9321.34427485252 
1733	 9279.32925277955 
1734	 9231.29302243674 
1735	 9190.54165781135 
1736	 9158.32996401386 
1737	 9123.198924878 
1738	 9086.82041703123 
1739	 9051.85194832837 
1740	 9018.87141765581 
1741	 8982.54943875655 
1742	 8946.61246748948 
1743	 8907.33576939551 
1744	 8864.58193593674 
1745	 8831.07998367014 
1746	 8789.60019048521 
1747	 8749.2146710543 
1748	 8706.83890482588 
1749	 8658.99121057342 
1750	 8617.25515298586 
1751	 8578.79045509502 
1752	 8541.33270864793 
1753	 8506.19268627431 
1754	 8464.98451270544 
1755	 8422.82005276156 
1756	 8380.8418243969 
1757	 8336.92836553081 
1758	 8292.72033630505 
1759	 8246.8283143215 
1760	 8202.56270563046 
1761	 8155.40651021991 
1762	 8107.65941064331 
1763	 8069.72678901414 
1764	 8032.16222928441 
1765	 7992.035147447 
1766	 7959.89047970268 
1767	 7920.68008078183 
1768	 7873.89821790646 
1769	 7836.50187272754 
1770	 7795.0890389364 
1771	 7748.41737027315 
1772	 7709.38534795954 
1773	 7668.86707931839 
1774	 7632.46213693833 
1775	 7605.88522459194 
1776	 7577.61429956631 
1777	 7545.34787208054 
1778	 7510.11131872059 
1779	 7468.66905764283 
1780	 7427.51288758019 
1781	 7391.60855534685 
1782	 7354.06625722598 
1783	 7320.44900627462 
1784	 7284.76226490665 
1785	 7247.92739587627 
1786	 7209.98882733945 
1787	 7171.08184590635 
1788	 7131.10525948508 
1789	 7087.26703945195 
1790	 7048.15997617739 
1791	 7008.24312426052 
1792	 6971.29707848898 
1793	 6942.30282299164 
1794	 6904.95491382294 
1795	 6865.92778526509 
1796	 6831.69705797469 
1797	 6786.98745414262 
1798	 6742.23393736283 
1799	 6697.29787860551 
1800	 6647.32085022576 
1801	 11719.8941460733 
1802	 11850.8420128515 
1803	 11979.837488625 
1804	 12111.3606097326 
1805	 12239.6679466763 
1806	 12367.1044155333 
1807	 12476.2014958073 
1808	 12571.7955486122 
1809	 12652.1038452928 
1810	 12731.1287266074 
1811	 12791.6323570123 
1812	 12858.2304901611 
1813	 12927.2151713025 
1814	 12984.7269622459 
1815	 13041.4055344292 
1816	 13103.1536772119 
1817	 13152.3944431139 
1818	 13195.116437677 
1819	 13247.8961579048 
1820	 13299.8736538467 
1821	 13353.8706203805 
1822	 13416.7599805757 
1823	 13480.2781980222 
1824	 13525.1497763686 
1825	 13570.0719455829 
1826	 13607.5189603655 
1827	 13653.1997319002 
1828	 13704.3979416769 
1829	 13772.2999438247 
1830	 13816.5606649794 
1831	 13865.809023563 
1832	 13893.9331060177 
1833	 13882.1645005077 
1834	 13858.5268364976 
1835	 13820.3032200454 
1836	 13791.4683779177 
1837	 13786.4708744551 
1838	 13819.4276797006 
1839	 13880.4629204982 
1840	 14000.2626792337 
1841	 14081.2775839894 
1842	 14189.3241482786 
1843	 14277.5743664678 
1844	 14274.9140584235 
1845	 14289.7092464336 
1846	 14309.8985693128 
1847	 14307.0921679268 
1848	 14339.6607585617 
1849	 14433.5499310652 
1850	 14467.5980575771 
1851	 14487.067528763 
1852	 14503.1285800657 
1853	 14483.7321202491 
1854	 14445.4388587221 
1855	 14405.1996486001 
1856	 14359.0045361014 
1857	 14314.974956241 
1858	 14278.8105673515 
1859	 14244.5752630426 
1860	 14233.396757699 
1861	 14183.4002298021 
1862	 14141.199619924 
1863	 14056.1750611518 
1864	 13904.0588863499 
1865	 13718.3414529731 
1866	 13448.4720892344 
1867	 13155.9494465588 
1868	 12871.6853623937 
1869	 12590.7599540876 
1870	 12362.2592185916 
1871	 12170.3034544135 
1872	 12009.1953416711 
1873	 11904.2529835205 
1874	 11830.4579519653 
1875	 11766.4463743147 
1876	 11708.616093039 
1877	 11620.6821745827 
1878	 11516.7889951662 
1879	 11380.044755512 
1880	 11216.350699842 
1881	 11039.2746307321 
1882	 10840.252966166 
1883	 10609.9228309618 
1884	 10377.256732889 
1885	 10151.3947150423 
1886	 9924.71481164948 
1887	 9702.76453765774 
1888	 9494.66235271698 
1889	 9296.62047583609 
1890	 9105.55044579605 
1891	 8924.71529314525 
1892	 8753.25720405472 
1893	 8599.3816924527 
1894	 8445.67516615301 
1895	 8287.19636487503 
1896	 8140.85860485982 
1897	 7976.48360413486 
1898	 7817.05846506955 
1899	 7680.40028273957 
1900	 7537.75167822744 
1901	 7414.65934606322 
1902	 7313.31625058883 
1903	 7232.06039031096 
1904	 7151.15126773723 
1905	 7104.7469985146 
1906	 7093.98543031026 
1907	 7067.79245251586 
1908	 7051.96711481388 
1909	 7033.96230440871 
1910	 6982.39456953235 
1911	 6948.29948162383 
1912	 6918.25038173009 
1913	 6884.8341874874 
1914	 6846.33256885683 
1915	 6833.49782448442 
1916	 6811.22571264226 
1917	 6770.08526083936 
1918	 6746.38667055967 
1919	 6717.0771976126 
1920	 6690.11334222743 
1921	 6691.83198490632 
1922	 6710.06043759187 
1923	 6724.2447503799 
1924	 6732.29042786082 
1925	 6738.11509401898 
1926	 6746.63016628107 
1927	 6747.08987343101 
1928	 6758.25609626843 
1929	 6780.54790663754 
1930	 6797.26157975813 
1931	 6816.15503538668 
1932	 6835.07486037568 
1933	 6841.61479744165 
1934	 6844.93259554703 
1935	 6855.37927604929 
1936	 6868.38712748772 
1937	 6874.10421385997 
1938	 6888.90951843311 
1939	 6911.46303511706 
1940	 6928.32502375444 
1941	 6949.98732463876 
1942	 6968.09378920176 
1943	 6991.50397632791 
1944	 7023.55857689277 
1945	 7039.57326215342 
1946	 7055.82428935588 
1947	 7068.81868688761 
1948	 7089.5990611844 
1949	 7106.04166326638 
1950	 7133.95324869175 
1951	 7167.53821482782 
1952	 7179.00283684838 
1953	 7179.61532466318 
1954	 7187.9058096321 
1955	 7190.97469074462 
1956	 7205.59519542472 
1957	 7236.9363733991 
1958	 7262.23477780354 
1959	 7292.50937968804 
1960	 7331.13236253648 
1961	 7373.66127500203 
1962	 7396.71466936742 
1963	 7411.27341969611 
1964	 7427.63380699554 
1965	 7436.79457001227 
1966	 7455.96703045657 
1967	 7497.10924170115 
1968	 7530.80090934039 
1969	 7552.39660326327 
1970	 7574.34204751203 
1971	 7588.95900655282 
1972	 7604.41048239963 
1973	 7611.3747618613 
1974	 7639.60673475462 
1975	 7662.50025780892 
1976	 7684.57630465563 
1977	 7717.79651887882 
1978	 7732.70822476476 
1979	 7744.64744768348 
1980	 7758.46078703554 
1981	 7761.63016511323 
1982	 7776.92524722768 
1983	 7794.8340406329 
1984	 7817.68775970042 
1985	 7844.84513379349 
1986	 7883.732269966 
1987	 7907.52581263834 
1988	 7935.03107095232 
1989	 7956.97463947115 
1990	 7966.25826522113 
1991	 7981.60669927761 
1992	 7999.0511573071 
1993	 8015.78283180597 
1994	 8033.5452644643 
1995	 8052.48426576897 
1996	 8072.44220258001 
1997	 8095.80496798882 
1998	 8112.69941051679 
1999	 8125.89790298593 
2000	 8146.24815225698 
2001	 8156.42625467011 
2002	 8165.72085221517 
2003	 8183.73604759778 
2004	 8201.57213214836 
2005	 8218.2543478613 
2006	 8235.08452332188 
2007	 8252.63551956328 
2008	 8269.56341780963 
2009	 8283.94099263298 
2010	 8300.60654630365 
2011	 8313.4497713816 
2012	 8323.31076088598 
2013	 8329.52851821164 
2014	 8336.52907910513 
2015	 8348.5360629118 
2016	 8356.48286466635 
2017	 8366.1681494985 
2018	 8376.6814979623 
2019	 8388.00314654237 
2020	 8395.90410414529 
2021	 8403.39500442951 
2022	 8409.16970297113 
2023	 8409.6069093305 
2024	 8411.32446005536 
2025	 8411.95901743714 
2026	 8418.66985193282 
2027	 8418.84045399592 
2028	 8419.29863232338 
2029	 8424.1158110593 
2030	 8424.29565467064 
2031	 8423.5873863633 
2032	 8422.85485620561 
2033	 8419.39819115069 
2034	 8409.94497752046 
2035	 8405.16332256566 
2036	 8403.96723782796 
2037	 8398.75435189749 
2038	 8392.92518752901 
2039	 8385.30336476165 
2040	 8375.27311318198 
2041	 8363.14262736419 
2042	 8352.57361136967 
2043	 8335.78056055534 
2044	 8319.29914178758 
2045	 8304.28026412409 
2046	 8287.52903968691 
2047	 8282.86820966394 
2048	 8276.63125657611 
2049	 8274.25298592295 
2050	 8270.23720887859 
2051	 8269.27682317741 
2052	 8260.97959463705 
2053	 8249.20599823498 
2054	 8238.52629867637 
2055	 8222.93814451763 
2056	 8207.16064940894 
2057	 8202.6060045825 
2058	 8198.37177048842 
2059	 8191.88151707274 
2060	 8196.49605642802 
2061	 8194.58331559861 
2062	 8190.68220140602 
2063	 8185.72194199685 
2064	 8180.8411028158 
2065	 8170.85625425582 
2066	 8152.49023124679 
2067	 8142.25239078834 
2068	 8131.26732879935 
2069	 8126.8460844614 
2070	 8126.15848858352 
2071	 8119.61704642432 
2072	 8111.21303233276 
2073	 8104.09996947538 
2074	 8097.5151831764 
2075	 8105.88305377531 
2076	 8107.70286000113 
2077	 8112.19352740047 
2078	 8110.36574056957 
2079	 8101.80777670853 
2080	 8095.44407717011 
2081	 8090.55718467547 
2082	 8086.54574171499 
2083	 8083.4389422983 
2084	 8078.72641005488 
2085	 8074.95435725368 
2086	 8065.98554518324 
2087	 8060.5201053341 
2088	 8062.93100167598 
2089	 8056.77356524432 
2090	 8043.53729881086 
2091	 8035.64446103235 
2092	 8027.06078559067 
2093	 8021.78094071588 
2094	 8026.25989379906 
2095	 8024.14611485437 
2096	 8017.97973606617 
2097	 8014.10148423496 
2098	 8011.83228061488 
2099	 8008.28802871339 
2100	 8002.789997842 
2101	 7997.95512868508 
2102	 8003.02955786923 
2103	 8003.39303341964 
2104	 7993.94438625486 
2105	 7993.42353917957 
2106	 7984.78198624853 
2107	 7968.3335467365 
2108	 7967.73928403227 
2109	 7982.98345552966 
2110	 7985.40549378295 
2111	 7992.69073656379 
2112	 7995.38585771905 
2113	 7987.34345364433 
2114	 7984.33462218308 
2115	 7984.37684945087 
2116	 7980.92460308754 
2117	 7972.9346950364 
2118	 7972.9210166942 
2119	 7977.60474900843 
2120	 7974.87822847793 
2121	 7976.62433361871 
2122	 7976.538122416 
2123	 7972.70968614517 
2124	 7969.25138207423 
2125	 7963.19288462643 
2126	 7957.80274601583 
2127	 7950.85808963731 
2128	 7936.80455965215 
2129	 7931.7690367276 
2130	 7931.72224016836 
2131	 7927.29377557641 
2132	 7926.34560757803 
2133	 7923.23248282264 
2134	 7919.0035970631 
2135	 7908.78852696809 
2136	 7901.74345606384 
2137	 7895.47572297196 
2138	 7887.15937763184 
2139	 7883.24965949077 
2140	 7872.64902676204 
2141	 7861.79908237293 
2142	 7854.3860308936 
2143	 7843.89665382231 
2144	 7838.37577803282 
2145	 7842.63081684861 
2146	 7836.38616975916 
2147	 7825.10945759587 
2148	 7821.38956163429 
2149	 7820.03536459496 
2150	 7817.63214916093 
2151	 7822.77572057789 
2152	 7812.14469058517 
2153	 7805.62674812293 
2154	 7790.43021809585 
2155	 7778.73350242213 
2156	 7768.38836687947 
2157	 7761.84021911837 
2158	 7765.43333660725 
2159	 7764.94867793991 
2160	 7767.11750717835 
2161	 7759.32158988159 
2162	 7740.84642988613 
2163	 7726.65859166605 
2164	 7705.60907682841 
2165	 7693.90416046929 
2166	 7690.37294272467 
2167	 7681.98385458583 
2168	 7678.42026410291 
2169	 7667.84632011205 
2170	 7647.20619687255 
2171	 7633.46521787375 
2172	 7620.45817752657 
2173	 7607.59293224997 
2174	 7599.24503147527 
2175	 7592.39565546198 
2176	 7575.13227163765 
2177	 7558.7770923192 
2178	 7539.31308928297 
2179	 7513.36084595601 
2180	 7497.43333653491 
2181	 7483.72601935939 
2182	 7475.3766999462 
2183	 7477.49064272429 
2184	 7471.2097901225 
2185	 7467.01888844341 
2186	 7460.47683604616 
2187	 7449.85320527452 
2188	 7437.66619610226 
2189	 7426.5453903623 
2190	 7407.81827091771 
2191	 7379.4600672575 
2192	 7359.38966719843 
2193	 7337.39492787601 
2194	 7312.38847782323 
2195	 7290.46658027682 
2196	 7265.42852368217 
2197	 7237.73596247909 
2198	 7210.23904600274 
2199	 7187.15135750218 
2200	 7169.34692907443 
2201	 7150.82436835534 
2202	 7137.77366586048 
2203	 7131.24777543603 
2204	 7111.94455377866 
2205	 7086.8278188539 
2206	 7055.16165306809 
2207	 7029.14576114024 
2208	 6991.32015527136 
2209	 6968.12775198659 
2210	 6962.9233910502 
2211	 6942.43106605223 
2212	 6918.53157248857 
2213	 6892.38658464978 
2214	 6862.91277369913 
2215	 6825.36621068661 
2216	 6786.81019593277 
2217	 6755.2605218435 
2218	 6731.48904566946 
2219	 6711.50880704104 
2220	 6691.03453177164 
2221	 6675.95631828616 
2222	 6656.52381869552 
2223	 6633.27157876224 
2224	 6612.62582421258 
2225	 6592.38269587693 
2226	 6562.32379556737 
2227	 6521.89897944853 
2228	 6486.95218289629 
2229	 6449.71548779418 
2230	 6412.13160893711 
2231	 6377.57382559807 
2232	 6341.27082847968 
2233	 6299.36789328074 
2234	 6266.00397197485 
2235	 6241.69778420643 
2236	 6205.87122910681 
2237	 6169.21776948968 
2238	 6127.24466773935 
2239	 6076.07077570443 
2240	 6024.56674667398 
2241	 5979.7863219382 
2242	 5936.21888483885 
2243	 5894.67697015331 
2244	 5860.73840873359 
2245	 5822.19617990979 
2246	 5784.45818652733 
2247	 5740.73817145693 
2248	 5685.81810590084 
2249	 5633.76519276588 
2250	 5582.16851092247 
2251	 5529.67814870154 
2252	 5480.0732274333 
2253	 5430.85122697949 
2254	 5380.59052276333 
2255	 5331.54069974374 
2256	 5285.15668362956 
2257	 5237.68609054056 
2258	 5188.97760216913 
2259	 5141.41119351541 
2260	 5093.43011657615 
2261	 5050.12631933686 
2262	 5008.13275636615 
2263	 4968.31237817682 
2264	 4936.11921804161 
2265	 4894.90199042914 
2266	 4850.34888993714 
2267	 4807.93862419531 
2268	 4760.24878804176 
2269	 4716.34933632844 
2270	 4684.16084697222 
2271	 4651.02255827625 
2272	 4618.33691418235 
2273	 4587.54953209866 
2274	 4546.10270488193 
2275	 4514.84689122629 
2276	 4483.27941257985 
2277	 4444.48051348634 
2278	 4415.89507676595 
2279	 4371.78201061524 
2280	 4332.7653147784 
2281	 4310.25192005911 
2282	 4280.05663977888 
2283	 4258.99257288048 
2284	 4237.35295714115 
2285	 4202.84868517398 
2286	 4172.24814935065 
2287	 4141.52723366541 
2288	 4111.36630240963 
2289	 4082.50569627151 
2290	 4050.88958316462 
2291	 4018.20635178473 
2292	 3982.33065964172 
2293	 3943.11515308637 
2294	 3903.22170312232 
2295	 3862.74745992606 
2296	 3827.79812122706 
2297	 3790.4555252009 
2298	 3752.68319998123 
2299	 3717.18959831239 
2300	 3681.37765263996 
2301	 3641.93875937296 
2302	 3611.76060185368 
2303	 3585.37351924361 
2304	 3558.87782621415 
2305	 3522.02222010581 
2306	 3491.06843166373 
2307	 3461.33113811582 
2308	 3421.0786718603 
2309	 3393.5688761589 
2310	 3360.45079381547 
2311	 3320.42182013689 
2312	 3292.51980576516 
2313	 3260.46414562824 
2314	 3228.11232723621 
2315	 3193.90336851521 
2316	 3165.86900304904 
2317	 3151.37452907295 
2318	 3128.72328206644 
2319	 3105.59037244822 
2320	 3083.53851933271 
2321	 3044.79970371408 
2322	 3012.84145166432 
2323	 2992.99802478785 
2324	 2964.00471326259 
2325	 2934.8031243074 
2326	 2910.17055798869 
2327	 2878.99288498966 
2328	 2840.99013521406 
2329	 2807.40023513865 
2330	 2769.68248638923 
2331	 2736.28374295731 
2332	 2710.65165498016 
2333	 2680.74792432559 
2334	 2644.52321132955 
2335	 2617.02332063795 
2336	 2592.32366079264 
2337	 2567.99247025389 
2338	 2554.31497515648 
2339	 2530.92024160766 
2340	 2501.64854068738 
2341	 2472.61098205829 
2342	 2435.14942365146 
2343	 2407.25209033583 
2344	 2385.34366814515 
2345	 2359.24582265746 
2346	 2334.12731511105 
2347	 2314.42949454765 
2348	 2293.1010859133 
2349	 2278.8589256423 
2350	 2277.33606463126 
2351	 2262.0111698992 
2352	 2237.18666304619 
2353	 2208.77601469298 
2354	 2168.25104252198 
2355	 2139.97896483637 
2356	 2123.07872409533 
2357	 2100.57447176215 
2358	 2076.76508035686 
2359	 2048.22475720569 
2360	 2025.35343248594 
2361	 2008.08509150396 
2362	 1993.50792925293 
2363	 1981.67063697646 
2364	 1958.06435905427 
2365	 1930.44070851008 
2366	 1907.6885536835 
2367	 1880.76520806255 
2368	 1854.34971544439 
2369	 1833.94805985297 
2370	 1811.58919078361 
2371	 1794.38154737698 
2372	 1777.72652304724 
2373	 1761.42482395331 
2374	 1748.63208586058 
2375	 1729.36219070971 
2376	 1704.96544952345 
2377	 1673.35781421438 
2378	 1643.47027438305 
2379	 1614.77338628637 
2380	 1590.95233134334 
2381	 1586.32190364868 
2382	 1577.90148129508 
2383	 1558.96504781398 
2384	 1543.15826599425 
2385	 1517.3668884322 
2386	 1489.45601876056 
2387	 1476.27122851644 
2388	 1467.99915367137 
2389	 1460.13157036201 
2390	 1444.00668765119 
2391	 1424.46628733395 
2392	 1411.04934338252 
2393	 1394.70480863654 
2394	 1380.50412962181 
2395	 1363.57981129206 
2396	 1350.6468224949 
2397	 1343.16958007605 
2398	 1326.58593062879 
2399	 1319.96563206369 
2400	 1310.10528097802 
2401	 1292.93775296995 
2402	 1276.46601347996 
2403	 1248.96879280685 
2404	 1222.31461124386 
2405	 1188.05531145194 
2406	 1161.20397670987 
2407	 1149.95719837536 
2408	 1128.97438081771 
2409	 1108.39281861178 
2410	 1098.85841931559 
2411	 1090.66883485538 
2412	 1077.58805738214 
2413	 1072.37520549202 
2414	 1062.94054273518 
2415	 1043.57016315786 
2416	 1034.71261295117 
2417	 1017.14332949452 
2418	 999.495682744354 
2419	 991.352540165943 
2420	 975.946062261433 
2421	 968.797540943977 
2422	 961.981878285241 
2423	 945.014750888915 
2424	 933.190312249413 
2425	 920.281043793654 
2426	 899.811184288209 
2427	 889.542950704165 
2428	 886.173333453596 
2429	 880.338952118011 
2430	 873.446752006967 
2431	 852.183180692235 
2432	 822.80841733759 
2433	 797.767356729165 
2434	 775.088214682235 
2435	 760.84611844178 
2436	 753.285869090696 
2437	 739.44994958437 
2438	 728.447465549369 
2439	 727.606001754192 
2440	 723.698869486624 
2441	 717.783618087675 
2442	 714.487042254303 
2443	 703.236337072112 
2444	 686.324246281058 
2445	 677.655105564365 
2446	 669.183781871975 
2447	 659.928064356834 
2448	 655.39504647161 
2449	 646.102668519853 
2450	 635.453600491992 
2451	 630.498783866496 
2452	 626.531974806929 
2453	 622.156852056812 
2454	 612.972863495518 
2455	 595.432098928324 
2456	 580.812560399809 
2457	 572.120600714157 
2458	 567.00345494007 
2459	 564.127846093366 
2460	 558.941223230916 
2461	 544.422949761772 
2462	 524.697126776604 
2463	 523.541822629486 
2464	 522.024607468262 
2465	 509.457040289707 
2466	 510.276562222668 
2467	 496.223944121912 
2468	 468.383703562467 
2469	 461.08117321194 
2470	 448.486589830709 
2471	 434.854507174337 
2472	 450.448496351223 
2473	 454.229059011276 
2474	 455.734354303779 
2475	 465.292198463111 
2476	 445.027389004392 
2477	 433.936789052171 
2478	 435.494238981153 
2479	 427.974793124825 
2480	 427.139121906469 
2481	 426.333254856612 
2482	 408.269438124044 
2483	 386.363964393557 
2484	 377.347449276897 
2485	 368.953559377607 
2486	 360.275226288475 
2487	 358.512316734643 
2488	 355.03670108796 
2489	 348.799976236049 
2490	 357.77193044029 
2491	 363.398251938028 
2492	 354.243114662301 
2493	 346.952740621138 
2494	 325.976518044507 
2495	 305.330976867286 
2496	 299.972194518069 
2497	 296.88815966247 
2498	 305.743007408203 
2499	 318.938785751699 
2500	 328.565309712727 
