Wavelength	spectrum00007.asd
350	 18.8624722292146 
351	 18.9494500341143 
352	 18.2958806421345 
353	 18.2059150421949 
354	 19.7090122596955 
355	 22.8264765598536 
356	 24.005005746851 
357	 23.1789710880981 
358	 23.2846882250124 
359	 24.0100704893438 
360	 25.4252071036887 
361	 27.3418958485539 
362	 29.0594172781193 
363	 30.1115987434704 
364	 31.8460487196432 
365	 35.5990748861559 
366	 37.2463599777703 
367	 38.9009764723734 
368	 41.3237846668731 
369	 43.0573124083799 
370	 44.7223356120897 
371	 46.8679910594069 
372	 49.4921651022722 
373	 50.7352055352889 
374	 52.3784753930509 
375	 54.9822113531418 
376	 58.0697569645204 
377	 59.6129797626286 
378	 61.4141358182518 
379	 64.4075323907158 
380	 66.8757124112138 
381	 69.5179285926649 
382	 72.7519457342477 
383	 76.5327285176822 
384	 78.9702246900493 
385	 80.3484697252554 
386	 81.7593746275438 
387	 84.9126878319326 
388	 88.4975882583094 
389	 91.986200780255 
390	 95.1985966368764 
391	 98.4836095928521 
392	 101.734390757254 
393	 104.239330800319 
394	 105.407600027643 
395	 109.343900695411 
396	 113.055967038077 
397	 115.367939572 
398	 119.864620490797 
399	 125.492323231925 
400	 130.614242004517 
401	 133.957994850553 
402	 137.45559112028 
403	 142.218950342058 
404	 147.552538153684 
405	 151.08038751496 
406	 156.768565135165 
407	 162.979714055237 
408	 167.956188377971 
409	 173.283971218871 
410	 180.239987091344 
411	 187.489753863379 
412	 192.683340538645 
413	 201.129885884163 
414	 209.714703345464 
415	 216.602956394548 
416	 224.362486913497 
417	 232.561715229562 
418	 240.640675244 
419	 248.422954931443 
420	 258.492385878468 
421	 269.29332711601 
422	 279.498363878262 
423	 288.410862982621 
424	 299.385455822085 
425	 310.905060388153 
426	 321.251771259731 
427	 332.473601371785 
428	 342.887576035094 
429	 353.372687078232 
430	 366.321901526758 
431	 378.856351554828 
432	 391.599940859041 
433	 404.748143974375 
434	 416.250858704921 
435	 427.79233031489 
436	 439.968160974675 
437	 452.833472090475 
438	 466.046367783573 
439	 478.504720903941 
440	 490.089401070478 
441	 502.081437369543 
442	 514.175792270809 
443	 526.668581887567 
444	 539.42641525698 
445	 549.846511064032 
446	 561.300689669291 
447	 573.832785661917 
448	 584.409781160628 
449	 593.088829175905 
450	 601.56132869556 
451	 610.949839722396 
452	 619.864520132946 
453	 628.430655009406 
454	 636.554589228617 
455	 643.964405529588 
456	 649.444810197826 
457	 655.600959075365 
458	 662.990401552451 
459	 667.449612312721 
460	 673.583101349647 
461	 679.84254547062 
462	 683.210932921919 
463	 685.756209772291 
464	 688.969886234488 
465	 693.435807845648 
466	 698.690057544368 
467	 703.097316588685 
468	 707.369710520345 
469	 712.558516270673 
470	 718.65006242726 
471	 723.178931805683 
472	 726.740505634192 
473	 732.29135327237 
474	 739.006324909629 
475	 744.214510635396 
476	 747.126080421572 
477	 752.269912773444 
478	 759.202544744484 
479	 766.58315071712 
480	 772.75433449479 
481	 779.344781210477 
482	 785.342103838906 
483	 790.91980966734 
484	 798.922444927434 
485	 805.265982624597 
486	 810.151842189562 
487	 815.440002573341 
488	 822.89673165024 
489	 830.767226733399 
490	 837.882315802723 
491	 844.044447690861 
492	 852.465825507743 
493	 861.52956375846 
494	 869.610046029792 
495	 879.894183460378 
496	 890.383797194052 
497	 901.035447256946 
498	 913.324572303954 
499	 926.710224677643 
500	 940.664277964075 
501	 954.841101795629 
502	 969.251885400802 
503	 984.898958477093 
504	 1001.76377216254 
505	 1019.22742974262 
506	 1036.79848888143 
507	 1054.39523030535 
508	 1073.37554440341 
509	 1097.66879874669 
510	 1122.70651934817 
511	 1148.24479669709 
512	 1175.19196057037 
513	 1201.4722975007 
514	 1231.17110591447 
515	 1264.68405788409 
516	 1297.67577235504 
517	 1334.2741403273 
518	 1373.02014310816 
519	 1412.11058347653 
520	 1453.97340706427 
521	 1497.51540395363 
522	 1542.32404060231 
523	 1588.63661209669 
524	 1637.78628304091 
525	 1686.14796673068 
526	 1731.79429796679 
527	 1779.2797876347 
528	 1828.37716141765 
529	 1877.49076864181 
530	 1924.50794885344 
531	 1971.41119364688 
532	 2018.70658150568 
533	 2066.34345948411 
534	 2113.81607535528 
535	 2158.57612621535 
536	 2201.68590279462 
537	 2244.91292027229 
538	 2284.73284146797 
539	 2325.28220057355 
540	 2366.88882472574 
541	 2404.57455284387 
542	 2443.20642617671 
543	 2482.3202904012 
544	 2520.8468179996 
545	 2561.29694190754 
546	 2601.2154523708 
547	 2640.56233713704 
548	 2681.26065483694 
549	 2720.34745751672 
550	 2755.87260950252 
551	 2788.5560550678 
552	 2825.97967627796 
553	 2859.97367712914 
554	 2890.7628589728 
555	 2922.3619132527 
556	 2946.85550416017 
557	 2966.42000577134 
558	 2984.09263218136 
559	 3002.24883592535 
560	 3017.57387228778 
561	 3027.7109325411 
562	 3031.53465056271 
563	 3032.57607121366 
564	 3031.9002460426 
565	 3028.94100631675 
566	 3021.33210597051 
567	 3011.63026360197 
568	 3000.50661955684 
569	 2988.14387043203 
570	 2974.18048106834 
571	 2964.10556032535 
572	 2958.98736550607 
573	 2955.88079347947 
574	 2954.74252427269 
575	 2954.36678551257 
576	 2955.36170809782 
577	 2963.91675725036 
578	 2973.19901907234 
579	 2983.80889904793 
580	 2999.82660401703 
581	 3016.49308060902 
582	 3031.55554752504 
583	 3044.59531010721 
584	 3058.33641637959 
585	 3065.16904511609 
586	 3068.13844060863 
587	 3072.96769140606 
588	 3074.52025972468 
589	 3076.66847432432 
590	 3079.9358322197 
591	 3080.13053756842 
592	 3078.90690234993 
593	 3076.3250562027 
594	 3072.01114495916 
595	 3064.844531626 
596	 3058.54433681024 
597	 3054.75798879057 
598	 3053.19751616536 
599	 3052.64577609553 
600	 3052.97988436018 
601	 3053.27714804365 
602	 3049.58780191216 
603	 3047.85361849193 
604	 3047.1950789055 
605	 3043.67600500002 
606	 3039.24661911665 
607	 3035.25813745383 
608	 3031.63136366007 
609	 3025.92116633832 
610	 3021.69392999178 
611	 3017.28865149998 
612	 3010.09859810855 
613	 3001.81885820663 
614	 2995.30691915249 
615	 2991.25724145095 
616	 2988.01424415306 
617	 2985.76677531479 
618	 2983.70706739605 
619	 2982.11462815844 
620	 2985.4090867468 
621	 2989.08615679283 
622	 2992.64921778121 
623	 2998.21826279555 
624	 3005.15245867427 
625	 3013.10071056044 
626	 3021.69396691141 
627	 3030.35124570731 
628	 3041.06218180357 
629	 3051.19657399798 
630	 3057.38235576871 
631	 3064.29005189612 
632	 3070.82361626361 
633	 3075.74421551169 
634	 3078.22138792791 
635	 3076.77501419058 
636	 3073.60597584171 
637	 3070.59635040596 
638	 3064.33164226835 
639	 3057.03565581791 
640	 3049.47039773402 
641	 3041.21761796559 
642	 3033.00977860436 
643	 3024.76373613264 
644	 3016.25544999466 
645	 3006.97932131151 
646	 2999.83880894366 
647	 2994.72110129495 
648	 2990.23385783525 
649	 2986.8103813014 
650	 2985.32068112146 
651	 2986.07562604401 
652	 2988.57530016927 
653	 2992.45826859467 
654	 2997.23188322013 
655	 3002.43632345479 
656	 3008.08221073031 
657	 3011.64154216442 
658	 3015.24062477739 
659	 3024.16604295212 
660	 3029.93086759718 
661	 3035.63620481998 
662	 3044.41989107844 
663	 3054.72996290563 
664	 3065.9054238174 
665	 3077.55456671148 
666	 3089.72985351192 
667	 3103.89966755725 
668	 3120.09757862303 
669	 3137.63482752636 
670	 3155.03271604672 
671	 3176.27368390203 
672	 3199.61168124239 
673	 3222.73378612377 
674	 3247.91987650028 
675	 3272.04581892342 
676	 3297.02784970109 
677	 3328.04923791693 
678	 3359.20004429228 
679	 3391.12433573588 
680	 3425.03394858606 
681	 3461.02036250531 
682	 3499.33787772392 
683	 3539.74298092863 
684	 3582.3388258195 
685	 3630.30359178927 
686	 3682.267765486 
687	 3738.32803523138 
688	 3800.65599182664 
689	 3871.54878684734 
690	 3950.39575310367 
691	 4037.53491923261 
692	 4138.49732600721 
693	 4252.04860557674 
694	 4380.43128880659 
695	 4527.65376907422 
696	 4693.1740548927 
697	 4877.91893608922 
698	 5081.90975489255 
699	 5303.24510157892 
700	 5549.32417743161 
701	 5813.24545314126 
702	 6086.76589621584 
703	 6378.91447655121 
704	 6680.88973587591 
705	 6990.24304996949 
706	 7310.28577641443 
707	 7635.58645216783 
708	 7967.45592403345 
709	 8307.36194277779 
710	 8654.46472543364 
711	 9006.68752009814 
712	 9364.76146014107 
713	 9730.15761465491 
714	 10100.8306988177 
715	 10476.0411125186 
716	 10855.8230519865 
717	 11240.8728906907 
718	 11626.1742047905 
719	 12015.8382689852 
720	 12412.7014729835 
721	 12810.607944219 
722	 13204.7996122163 
723	 13596.6785923587 
724	 13989.6791841139 
725	 14373.398964547 
726	 14753.0163064819 
727	 15131.8958254296 
728	 15508.6832317001 
729	 15876.8964012594 
730	 16237.9106221639 
731	 16593.6934813188 
732	 16939.8408181195 
733	 17279.2250408595 
734	 17612.0831489066 
735	 17936.7339572591 
736	 18250.8915574338 
737	 18557.4199977449 
738	 18857.8664892356 
739	 19150.5174178722 
740	 19439.3164264529 
741	 19721.2805227305 
742	 19993.0977027756 
743	 20259.9516229296 
744	 20509.8360050897 
745	 20741.7301679846 
746	 20964.6636165456 
747	 21200.4486744294 
748	 21431.3305331523 
749	 21650.0903552264 
750	 21877.3550907646 
751	 22094.9785564535 
752	 22307.2359115888 
753	 22520.4935590315 
754	 22720.6934786688 
755	 22919.0365197331 
756	 23118.9483650981 
757	 23317.2208142832 
758	 23510.4803217995 
759	 23693.1736917083 
760	 23866.1590759262 
761	 24040.5079840718 
762	 24219.8263665573 
763	 24401.9277526581 
764	 24580.8424040188 
765	 24746.3105246462 
766	 24905.6591304345 
767	 25060.9533049947 
768	 25210.6850366961 
769	 25358.1301568157 
770	 25498.3798277034 
771	 25636.9645105346 
772	 25796.6686771111 
773	 25948.2886868004 
774	 26078.913584537 
775	 26186.1347358348 
776	 26284.1874456145 
777	 26371.8053823257 
778	 26449.7644656125 
779	 26521.0297940885 
780	 26596.5044244435 
781	 26666.1424330637 
782	 26725.6528900727 
783	 26781.0271229953 
784	 26833.5748938349 
785	 26881.4806538502 
786	 26922.7149241453 
787	 26957.1296431855 
788	 26986.7604992097 
789	 27010.4008205761 
790	 27026.2549117845 
791	 27038.3310670099 
792	 27047.2048519243 
793	 27052.0654793405 
794	 27051.1522804906 
795	 27045.9862046839 
796	 27039.3105649104 
797	 27030.2418937206 
798	 27009.9717839193 
799	 26985.913243577 
800	 26956.2812240661 
801	 26917.5515628406 
802	 26873.2962197891 
803	 26815.046825811 
804	 26750.034476361 
805	 26694.4168806595 
806	 26636.5634227423 
807	 26575.4446867142 
808	 26512.2261707374 
809	 26449.3518036753 
810	 26373.8945070223 
811	 26294.2855183081 
812	 26218.4386172207 
813	 26138.1756410491 
814	 26048.5585419916 
815	 25948.1792684261 
816	 25839.034220015 
817	 25728.5651669316 
818	 25615.1382485089 
819	 25498.2447976292 
820	 25379.0685450924 
821	 25261.1787498712 
822	 25138.8598966706 
823	 25009.734328757 
824	 24879.2705607797 
825	 24744.8351633843 
826	 24607.466261744 
827	 24468.025397689 
828	 24323.1011728967 
829	 24181.7695664925 
830	 24041.2912376646 
831	 23894.686120552 
832	 23748.1008087571 
833	 23597.8414116864 
834	 23443.6390739875 
835	 23289.0546935337 
836	 23137.1684342008 
837	 22989.1323013467 
838	 22844.6769284205 
839	 22702.1333974668 
840	 22559.9492284045 
841	 22418.9761752479 
842	 22279.3652605776 
843	 22136.627925669 
844	 21997.9610727938 
845	 21861.2063063984 
846	 21721.5686034214 
847	 21583.0241963643 
848	 21450.579026558 
849	 21322.0786730238 
850	 21190.7912732757 
851	 21063.2381509304 
852	 20934.6332522838 
853	 20804.1526174062 
854	 20677.5023533315 
855	 20545.09866197 
856	 20411.4676614629 
857	 20281.7399267994 
858	 20155.1068752832 
859	 20033.9808417353 
860	 19917.00128809 
861	 19800.3009801257 
862	 19677.5675516961 
863	 19544.7332573096 
864	 19408.3394818679 
865	 19278.0311033528 
866	 19145.2286821638 
867	 19010.4786635451 
868	 18875.6614280663 
869	 18742.6903798759 
870	 18606.9850506829 
871	 18470.4410690979 
872	 18333.805259248 
873	 18195.0815592661 
874	 18053.4334583066 
875	 17911.6243844425 
876	 17771.3339129839 
877	 17630.167998332 
878	 17490.586109617 
879	 17351.6620084536 
880	 17210.8140236188 
881	 17063.4883380007 
882	 16916.6047028788 
883	 16773.1468151531 
884	 16632.3211694369 
885	 16485.9850543357 
886	 16341.1329412591 
887	 16196.9429574499 
888	 16048.0305248519 
889	 15900.5305456897 
890	 15754.0305984107 
891	 15608.6275074778 
892	 15465.024822874 
893	 15317.3410938638 
894	 15169.6698577688 
895	 15024.2714297373 
896	 14878.6022660452 
897	 14734.7912372704 
898	 14591.8561316721 
899	 14449.1944393752 
900	 14308.2976768886 
901	 14167.8810631305 
902	 14026.4501067447 
903	 13883.3166148324 
904	 13739.3972235886 
905	 13600.8455438899 
906	 13466.8640055835 
907	 13333.5214237466 
908	 13197.1063888521 
909	 13059.7965279142 
910	 12923.0909283908 
911	 12788.3038375593 
912	 12658.1526594925 
913	 12528.0319099002 
914	 12396.4536542633 
915	 12264.6849644346 
916	 12134.1924545997 
917	 12007.6907656138 
918	 11883.8734687821 
919	 11758.1918647723 
920	 11629.5459704647 
921	 11504.123980936 
922	 11382.3395479076 
923	 11257.8158831779 
924	 11133.680047504 
925	 11011.2662171877 
926	 10889.5482250394 
927	 10765.0318136776 
928	 10641.7985497978 
929	 10518.8689553095 
930	 10395.386490929 
931	 10272.3535016457 
932	 10151.2879836267 
933	 10031.078110554 
934	 9910.17651212333 
935	 9787.40312562983 
936	 9671.49238489577 
937	 9558.48957202869 
938	 9443.58502471727 
939	 9329.024480994 
940	 9212.68080868638 
941	 9097.77191408309 
942	 8986.45597153633 
943	 8873.78045525677 
944	 8758.08121356785 
945	 8641.91199391619 
946	 8527.84857721743 
947	 8412.94373599035 
948	 8300.54216621531 
949	 8187.55795670748 
950	 8071.7646336816 
951	 7962.96723864689 
952	 7851.68548810741 
953	 7739.71345745114 
954	 7631.56122432383 
955	 7522.1322989505 
956	 7414.49745918185 
957	 7308.35291909336 
958	 7202.22777948892 
959	 7096.78229759464 
960	 6992.64954077419 
961	 6890.15799395604 
962	 6788.91131110573 
963	 6686.32242679177 
964	 6585.58287910257 
965	 6487.58645959793 
966	 6391.29806755654 
967	 6293.84071266803 
968	 6196.24014486672 
969	 6099.76903174793 
970	 6005.53299698674 
971	 5913.88856234971 
972	 5822.65137015733 
973	 5730.43418972176 
974	 5637.56162913999 
975	 5548.93019208568 
976	 5459.35521250414 
977	 5370.2590617758 
978	 5284.94041572925 
979	 5199.32758932007 
980	 5114.42122889727 
981	 5029.93741300079 
982	 4945.86932220303 
983	 4865.83587171672 
984	 4786.00736147879 
985	 4706.19643402989 
986	 4627.58201359968 
987	 4549.37890270947 
988	 4472.30443556068 
989	 4396.13878993666 
990	 4320.39330400083 
991	 4245.00998651747 
992	 4170.86938870815 
993	 4099.0088444605 
994	 4029.04713250766 
995	 3956.65211258407 
996	 3883.50578993505 
997	 3812.91626064374 
998	 3746.67782943575 
999	 3681.57813995111 
1000	 3614.77415913465 
1001	 7891.01824104822 
1002	 7921.51449348053 
1003	 7962.35886201722 
1004	 8006.5478465467 
1005	 8049.83192826687 
1006	 8102.91570110607 
1007	 8162.06781880071 
1008	 8215.54573360416 
1009	 8271.35301062529 
1010	 8331.74830238004 
1011	 8388.27654541561 
1012	 8453.51055436483 
1013	 8527.56233303036 
1014	 8601.48216374183 
1015	 8677.62769603887 
1016	 8758.44197065584 
1017	 8843.83579122293 
1018	 8925.9223360908 
1019	 9018.35369622013 
1020	 9108.76329428516 
1021	 9190.6131476657 
1022	 9280.42514752886 
1023	 9368.90966597412 
1024	 9460.58072608154 
1025	 9550.02785656551 
1026	 9647.53645021248 
1027	 9728.83394428444 
1028	 9802.66346724041 
1029	 9871.50342840213 
1030	 9932.67022662941 
1031	 9991.63397213922 
1032	 10050.9957063146 
1033	 10107.6003943882 
1034	 10162.4968481808 
1035	 10216.2688000503 
1036	 10263.9718855706 
1037	 10298.1688531484 
1038	 10324.7077483362 
1039	 10353.1523468727 
1040	 10379.3857332608 
1041	 10402.8996184489 
1042	 10425.1036091798 
1043	 10447.5273333006 
1044	 10463.0868547839 
1045	 10469.1792718866 
1046	 10473.9553231118 
1047	 10482.1306548575 
1048	 10488.2997992154 
1049	 10493.7850665105 
1050	 10508.213748085 
1051	 10521.8386125366 
1052	 10524.4674935052 
1053	 10530.1556807539 
1054	 10536.612334821 
1055	 10541.541776543 
1056	 10543.3340034353 
1057	 10559.2856591927 
1058	 10582.9555442123 
1059	 10606.0817112347 
1060	 10637.9257043628 
1061	 10671.9515239397 
1062	 10708.3035736488 
1063	 10751.4038285258 
1064	 10795.8900669763 
1065	 10844.5396866309 
1066	 10890.8790117388 
1067	 10944.7366472348 
1068	 11000.8823422277 
1069	 11067.4001938343 
1070	 11137.537051437 
1071	 11218.8613501126 
1072	 11315.6709301657 
1073	 11418.1255800944 
1074	 11526.2275214741 
1075	 11648.7699016856 
1076	 11767.1266656647 
1077	 11886.0654685982 
1078	 12020.3847155918 
1079	 12152.2807894197 
1080	 12292.8264253715 
1081	 12439.7592131806 
1082	 12599.2596679003 
1083	 12757.2389029001 
1084	 12916.7075150156 
1085	 13080.2851624508 
1086	 13240.8992702581 
1087	 13406.2848330038 
1088	 13578.4588893272 
1089	 13745.6225494582 
1090	 13915.2204523091 
1091	 14081.9566407996 
1092	 14243.5132612023 
1093	 14403.2552951593 
1094	 14566.3537324294 
1095	 14718.3868702828 
1096	 14863.0342011028 
1097	 15002.645157278 
1098	 15140.8185560733 
1099	 15273.5352805396 
1100	 15412.1131555177 
1101	 15551.260125503 
1102	 15679.8289952473 
1103	 15813.283302389 
1104	 15942.2584245588 
1105	 16061.0162186101 
1106	 16181.1123302374 
1107	 16303.8990702737 
1108	 16418.7757859291 
1109	 16527.8805955867 
1110	 16635.0955053082 
1111	 16739.7652382139 
1112	 16839.7749132653 
1113	 16935.4292121675 
1114	 17024.2891099987 
1115	 17113.279442325 
1116	 17194.2057167762 
1117	 17266.8023847073 
1118	 17353.3700747491 
1119	 17436.0594262151 
1120	 17516.3270698709 
1121	 17598.5638097382 
1122	 17684.1780906656 
1123	 17764.5435359882 
1124	 17839.7041654163 
1125	 17921.9845267454 
1126	 18008.1975584915 
1127	 18093.441571283 
1128	 18175.1365534491 
1129	 18252.1179674384 
1130	 18316.9564740994 
1131	 18382.8471744976 
1132	 18448.3136486901 
1133	 18513.3792570568 
1134	 18576.4122225424 
1135	 18634.3991510019 
1136	 18697.2481128875 
1137	 18763.6249524855 
1138	 18826.9154627181 
1139	 18897.4519299847 
1140	 18956.1161798364 
1141	 19012.0548369742 
1142	 19052.8122479589 
1143	 19086.8508724555 
1144	 19125.0647440713 
1145	 19162.9915689355 
1146	 19205.0811205623 
1147	 19252.620470005 
1148	 19309.887724654 
1149	 19359.0183192344 
1150	 19408.3964094095 
1151	 19457.8693356861 
1152	 19503.9414337054 
1153	 19552.8268116432 
1154	 19606.3198673738 
1155	 19655.3228132941 
1156	 19703.1641767345 
1157	 19749.9899071885 
1158	 19793.7232304085 
1159	 19830.4197990561 
1160	 19867.5947675099 
1161	 19909.9643376275 
1162	 19950.4860106875 
1163	 19992.6313352003 
1164	 20033.9071060418 
1165	 20077.1009228462 
1166	 20113.0012994226 
1167	 20146.4125184457 
1168	 20177.2364196723 
1169	 20199.3309137026 
1170	 20226.8412367455 
1171	 20255.3055923689 
1172	 20286.0716463802 
1173	 20309.0864323173 
1174	 20335.5582048263 
1175	 20359.8999385933 
1176	 20379.2951873643 
1177	 20400.4996317895 
1178	 20424.12591687 
1179	 20445.8250127976 
1180	 20467.6586652933 
1181	 20484.7925582162 
1182	 20497.6734419007 
1183	 20514.3789931615 
1184	 20525.0795411232 
1185	 20543.2453321726 
1186	 20572.5187184859 
1187	 20594.993543845 
1188	 20615.7788566124 
1189	 20635.9238109277 
1190	 20659.7425765569 
1191	 20682.5480180686 
1192	 20706.8849743809 
1193	 20737.2660984976 
1194	 20762.4255096682 
1195	 20783.2776680765 
1196	 20806.0066149757 
1197	 20829.3266731575 
1198	 20851.6308662184 
1199	 20869.2219002597 
1200	 20894.8150106827 
1201	 20922.1183398298 
1202	 20953.2721219342 
1203	 20994.7443770737 
1204	 21031.1391439113 
1205	 21066.0800540678 
1206	 21102.1097247325 
1207	 21136.7784806909 
1208	 21168.5779378258 
1209	 21203.3214004789 
1210	 21240.3881694883 
1211	 21275.0945499264 
1212	 21305.6719275806 
1213	 21343.6757383284 
1214	 21386.097944972 
1215	 21425.3224491326 
1216	 21470.4497988674 
1217	 21510.0386853047 
1218	 21540.9693828499 
1219	 21577.3586610939 
1220	 21616.9406921705 
1221	 21654.7537925649 
1222	 21690.8904129488 
1223	 21729.1514967893 
1224	 21762.8992978403 
1225	 21792.2738661989 
1226	 21822.4525370789 
1227	 21851.7642928366 
1228	 21880.1625155304 
1229	 21910.4191052329 
1230	 21933.4754528743 
1231	 21955.1796199382 
1232	 21971.0795255684 
1233	 21977.3172516358 
1234	 21985.7736101055 
1235	 21992.3516077074 
1236	 21997.3272553833 
1237	 22001.1064725852 
1238	 22004.4426620697 
1239	 22006.048292166 
1240	 22006.1979808476 
1241	 22003.7439702774 
1242	 22001.1013878184 
1243	 21993.6603721618 
1244	 21979.1667593318 
1245	 21969.8799309766 
1246	 21963.8748585364 
1247	 21950.316761098 
1248	 21933.4688743107 
1249	 21918.4869533927 
1250	 21896.9777890109 
1251	 21878.9826698307 
1252	 21864.3729495748 
1253	 21851.2404997738 
1254	 21839.0475608191 
1255	 21826.3822482091 
1256	 21814.6338182417 
1257	 21807.5503803936 
1258	 21794.0657598973 
1259	 21776.3603274555 
1260	 21761.563374619 
1261	 21748.3746998544 
1262	 21729.7407531461 
1263	 21711.0603389614 
1264	 21688.4471877502 
1265	 21662.2083164806 
1266	 21631.4174868377 
1267	 21596.8918811234 
1268	 21560.8001441716 
1269	 21524.0304885136 
1270	 21478.5044061436 
1271	 21428.1869157192 
1272	 21374.2286886726 
1273	 21316.8555501901 
1274	 21250.6546948651 
1275	 21185.8751090934 
1276	 21120.7602916063 
1277	 21053.3178581009 
1278	 20980.2222462787 
1279	 20910.4610952373 
1280	 20842.1046089299 
1281	 20772.2614114846 
1282	 20700.7155590828 
1283	 20631.1595908034 
1284	 20555.9292529513 
1285	 20491.9654136927 
1286	 20435.3144519442 
1287	 20379.1688846475 
1288	 20330.981453226 
1289	 20282.5140682351 
1290	 20230.3660542686 
1291	 20185.1999361219 
1292	 20144.0376504985 
1293	 20106.5924509616 
1294	 20073.112837867 
1295	 20043.6261763716 
1296	 20018.6321201871 
1297	 19995.6375586228 
1298	 19981.5706856116 
1299	 19974.0327573664 
1300	 19972.4854583724 
1301	 19979.9634276486 
1302	 19988.577539621 
1303	 20005.4255395034 
1304	 20018.6775263333 
1305	 20028.9537000253 
1306	 20046.1928627515 
1307	 20067.5987641057 
1308	 20089.5321752381 
1309	 20106.7295711334 
1310	 20132.0051676609 
1311	 20157.3302864823 
1312	 20177.9295586032 
1313	 20207.109354725 
1314	 20250.1649324564 
1315	 20278.8955875087 
1316	 20302.9302496034 
1317	 20327.9278946751 
1318	 20347.0506638083 
1319	 20369.4551045939 
1320	 20394.8806986484 
1321	 20417.9350544495 
1322	 20438.3839241384 
1323	 20460.7944680661 
1324	 20484.1466748624 
1325	 20506.5612795127 
1326	 20531.1087796128 
1327	 20554.1945010981 
1328	 20571.0751996843 
1329	 20584.8608705456 
1330	 20594.9837794911 
1331	 20600.1516534862 
1332	 20603.5320589394 
1333	 20603.264304998 
1334	 20604.3675969287 
1335	 20603.3214443417 
1336	 20600.1285407035 
1337	 20599.3326850991 
1338	 20590.8402215073 
1339	 20576.1343926698 
1340	 20561.4295632987 
1341	 20542.8548775032 
1342	 20523.1128171752 
1343	 20509.4688066032 
1344	 20481.3394579437 
1345	 20446.0537055941 
1346	 20404.9018244362 
1347	 20353.0064704758 
1348	 20295.9541912582 
1349	 20239.4797611938 
1350	 20170.512253558 
1351	 20086.27728672 
1352	 19987.9776641129 
1353	 19884.2915275245 
1354	 19756.4952097875 
1355	 19651.1464868753 
1356	 19550.5350916479 
1357	 19448.6887875825 
1358	 19351.4796036438 
1359	 19257.3306457821 
1360	 19144.8403786873 
1361	 19070.9032227799 
1362	 19007.0651799699 
1363	 18974.9607546641 
1364	 18990.2958788844 
1365	 18993.5767585942 
1366	 19019.4840202321 
1367	 19035.6450038178 
1368	 19043.0583936613 
1369	 19053.542964695 
1370	 19071.6863119882 
1371	 19100.3457406602 
1372	 19115.6101543484 
1373	 19150.3911860741 
1374	 19126.3539617022 
1375	 19094.4471619607 
1376	 18993.9150687064 
1377	 18837.173847397 
1378	 18662.663993034 
1379	 18413.7541271566 
1380	 18210.0500052762 
1381	 17966.7716685252 
1382	 17800.2112463726 
1383	 17680.5203908729 
1384	 17570.5465427954 
1385	 17536.7514050875 
1386	 17450.9162161629 
1387	 17370.6537867077 
1388	 17250.3613130785 
1389	 17101.5409788061 
1390	 16926.514231483 
1391	 16724.6096413883 
1392	 16497.4962241838 
1393	 16263.5808662555 
1394	 16030.3602201829 
1395	 15818.2854184585 
1396	 15613.0064334778 
1397	 15420.8894191729 
1398	 15248.414385176 
1399	 15070.9661615389 
1400	 14898.068213547 
1401	 14729.5692903985 
1402	 14564.6537205833 
1403	 14404.7344447724 
1404	 14246.3095462758 
1405	 14099.1493813301 
1406	 13952.541750879 
1407	 13825.3474439404 
1408	 13714.5029224027 
1409	 13609.9137203215 
1410	 13524.5702086919 
1411	 13436.0854058262 
1412	 13350.7218041919 
1413	 13270.0880626289 
1414	 13191.3769574789 
1415	 13118.2083615239 
1416	 13055.5313685837 
1417	 12992.7871090479 
1418	 12924.9996089417 
1419	 12856.2570536505 
1420	 12794.9892283302 
1421	 12728.4815663997 
1422	 12677.8106925425 
1423	 12642.8912901304 
1424	 12602.242269572 
1425	 12566.2561251316 
1426	 12529.2580473137 
1427	 12488.0913573772 
1428	 12456.9514743664 
1429	 12431.6754404243 
1430	 12407.1077575256 
1431	 12388.2928961593 
1432	 12371.4867391071 
1433	 12354.0399302102 
1434	 12341.9316130977 
1435	 12336.8710103088 
1436	 12330.8970213333 
1437	 12326.7215163634 
1438	 12324.3323421208 
1439	 12323.6874438014 
1440	 12324.8576780201 
1441	 12322.8095207113 
1442	 12323.5666527038 
1443	 12324.2042815997 
1444	 12323.914271602 
1445	 12327.0937792474 
1446	 12332.8353704386 
1447	 12341.2378148277 
1448	 12351.4021569356 
1449	 12363.0264067049 
1450	 12378.6840993038 
1451	 12393.0009579241 
1452	 12407.9785406394 
1453	 12422.2308065522 
1454	 12439.3722296792 
1455	 12451.2495047323 
1456	 12459.3505118584 
1457	 12468.4006683975 
1458	 12473.3556111741 
1459	 12481.7051856385 
1460	 12492.4634549115 
1461	 12502.8255659436 
1462	 12513.6173026266 
1463	 12524.589105724 
1464	 12534.8295562051 
1465	 12546.8930821284 
1466	 12557.2687241957 
1467	 12573.6754207002 
1468	 12595.3045671789 
1469	 12617.2068251414 
1470	 12637.9165662449 
1471	 12660.7625627043 
1472	 12688.7020180994 
1473	 12715.992212757 
1474	 12744.9901202335 
1475	 12782.1078030222 
1476	 12810.0585680483 
1477	 12832.27331592 
1478	 12858.1176911627 
1479	 12882.1845636774 
1480	 12909.4589405992 
1481	 12937.4650442706 
1482	 12967.5143191367 
1483	 13003.3707624528 
1484	 13031.8478446553 
1485	 13056.7896826138 
1486	 13085.6097976167 
1487	 13111.8747281871 
1488	 13139.1350025535 
1489	 13171.2785312947 
1490	 13200.0089746466 
1491	 13223.4797114422 
1492	 13251.5431875949 
1493	 13285.2129983348 
1494	 13312.9809730055 
1495	 13334.2571254522 
1496	 13363.1255328124 
1497	 13394.8624075065 
1498	 13424.2743172623 
1499	 13460.8445052053 
1500	 13493.0419935188 
1501	 13522.5086413214 
1502	 13545.0557231097 
1503	 13566.7154776088 
1504	 13589.4667628394 
1505	 13612.3700336958 
1506	 13631.1694513193 
1507	 13653.151675703 
1508	 13680.704771644 
1509	 13697.9983701682 
1510	 13708.7566539895 
1511	 13725.6763739685 
1512	 13737.3534213924 
1513	 13757.9330491964 
1514	 13789.3353899815 
1515	 13810.5247709309 
1516	 13829.2974156139 
1517	 13850.3794792454 
1518	 13866.9197154148 
1519	 13888.1721568753 
1520	 13917.8838863125 
1521	 13937.9351948402 
1522	 13953.4796167931 
1523	 13969.9368394434 
1524	 13983.1766634975 
1525	 13995.4927272835 
1526	 14006.3871331658 
1527	 14019.4827304198 
1528	 14030.9133651082 
1529	 14043.8725607154 
1530	 14061.6406848854 
1531	 14075.5319890386 
1532	 14085.5058767796 
1533	 14097.8035633971 
1534	 14112.2650225453 
1535	 14123.2494729002 
1536	 14131.227896611 
1537	 14142.5599562126 
1538	 14154.9475922635 
1539	 14164.6167088382 
1540	 14172.3466906553 
1541	 14187.2423540263 
1542	 14192.8396325334 
1543	 14197.2090353558 
1544	 14203.0693145648 
1545	 14207.8008985254 
1546	 14217.9918579868 
1547	 14230.8684919593 
1548	 14241.7648134362 
1549	 14257.3517948552 
1550	 14266.4582192328 
1551	 14270.9521174641 
1552	 14276.9094453476 
1553	 14280.9032508348 
1554	 14287.2764400929 
1555	 14294.9705081757 
1556	 14300.1552798519 
1557	 14306.6643661576 
1558	 14309.5419057377 
1559	 14306.8595184306 
1560	 14309.5805059328 
1561	 14317.1115358169 
1562	 14315.8026329412 
1563	 14310.4291479125 
1564	 14308.8349939454 
1565	 14297.8345114123 
1566	 14299.9574723023 
1567	 14317.0008983006 
1568	 14323.5922519871 
1569	 14332.4162597759 
1570	 14335.5836224522 
1571	 14328.6014745826 
1572	 14328.4037661947 
1573	 14332.0542165549 
1574	 14330.9558892742 
1575	 14329.6935365001 
1576	 14327.6513811893 
1577	 14321.5251408421 
1578	 14316.2238816883 
1579	 14311.946156903 
1580	 14307.375414147 
1581	 14299.282946779 
1582	 14295.2687764399 
1583	 14299.1837867829 
1584	 14294.5638087017 
1585	 14285.8348074267 
1586	 14278.4992348624 
1587	 14264.9676529969 
1588	 14254.0628196144 
1589	 14245.5525801816 
1590	 14238.7354304621 
1591	 14232.8734269215 
1592	 14227.0355153886 
1593	 14222.8824899419 
1594	 14219.8301830485 
1595	 14218.7959596782 
1596	 14214.0452945686 
1597	 14212.4356781872 
1598	 14216.3790397403 
1599	 14206.446604357 
1600	 14189.5040699922 
1601	 14179.5605064944 
1602	 14164.1201694595 
1603	 14153.0898603144 
1604	 14150.0756744274 
1605	 14140.0097204299 
1606	 14123.5661970567 
1607	 14114.1527752245 
1608	 14108.8991632507 
1609	 14098.5652209502 
1610	 14089.7047944483 
1611	 14075.2517351854 
1612	 14056.062459904 
1613	 14036.9317575691 
1614	 14015.1195121573 
1615	 13994.0627075263 
1616	 13970.2694426635 
1617	 13951.2980263668 
1618	 13934.004019507 
1619	 13917.0205488361 
1620	 13903.3804364063 
1621	 13887.8378047831 
1622	 13875.2593427131 
1623	 13852.9259281493 
1624	 13828.2365897784 
1625	 13797.9178209132 
1626	 13753.662783379 
1627	 13722.6134602159 
1628	 13696.6021682418 
1629	 13665.8203226493 
1630	 13638.0970049984 
1631	 13608.4548221937 
1632	 13573.5006981578 
1633	 13542.0778348523 
1634	 13514.3735848267 
1635	 13484.7984227358 
1636	 13454.6145816391 
1637	 13422.7444148711 
1638	 13391.380617714 
1639	 13358.1877189743 
1640	 13320.7600462369 
1641	 13286.7024049309 
1642	 13253.5965501739 
1643	 13220.2759500083 
1644	 13190.4370608507 
1645	 13155.6838031246 
1646	 13119.551925586 
1647	 13079.9219999733 
1648	 13032.9893049085 
1649	 12992.5753431729 
1650	 12954.5056520398 
1651	 12914.8356226869 
1652	 12880.1461158712 
1653	 12837.3382700777 
1654	 12787.81220346 
1655	 12740.952989528 
1656	 12692.709805836 
1657	 12643.3074834824 
1658	 12591.6271074907 
1659	 12542.911610463 
1660	 12495.3452206691 
1661	 12446.2951040264 
1662	 12401.0429456836 
1663	 12350.8814568768 
1664	 12294.3020437364 
1665	 12240.3453639811 
1666	 12183.7492543305 
1667	 12132.8502193131 
1668	 12085.5584496562 
1669	 12038.7038391989 
1670	 11996.0240612243 
1671	 11952.2772206434 
1672	 11907.7573258607 
1673	 11863.8552059268 
1674	 11819.6397237106 
1675	 11777.7992604631 
1676	 11735.9278898151 
1677	 11697.7591154217 
1678	 11668.8475460515 
1679	 11629.7031703291 
1680	 11588.8986306335 
1681	 11544.5278077468 
1682	 11490.5016952201 
1683	 11438.8189799588 
1684	 11383.0895948977 
1685	 11334.581250632 
1686	 11291.47340363 
1687	 11245.2653071156 
1688	 11204.7712099008 
1689	 11158.8102263407 
1690	 11102.5570802681 
1691	 11055.5776264704 
1692	 11013.9435556843 
1693	 10969.1171382635 
1694	 10930.9162655176 
1695	 10883.9180028033 
1696	 10824.3819908895 
1697	 10777.0796292518 
1698	 10731.0903748671 
1699	 10687.8356212719 
1700	 10652.9812838619 
1701	 10617.0501101407 
1702	 10585.439643401 
1703	 10544.9259193343 
1704	 10501.6706396013 
1705	 10459.218998878 
1706	 10404.3709773842 
1707	 10363.5832013389 
1708	 10336.9224078448 
1709	 10298.405132083 
1710	 10261.2193056979 
1711	 10219.8370744513 
1712	 10167.4242807397 
1713	 10124.6629127477 
1714	 10086.5286176575 
1715	 10045.3827505702 
1716	 10008.17523765 
1717	 9965.32571479234 
1718	 9917.12042683547 
1719	 9873.3652028797 
1720	 9828.17153993152 
1721	 9784.76748998802 
1722	 9744.81274460698 
1723	 9701.81744319524 
1724	 9657.57971033133 
1725	 9614.14088675689 
1726	 9571.14523358212 
1727	 9526.34257179251 
1728	 9480.86508990542 
1729	 9437.22711870964 
1730	 9389.52024654269 
1731	 9350.51889729439 
1732	 9316.95248747131 
1733	 9283.95771656364 
1734	 9260.13634947186 
1735	 9223.46263571438 
1736	 9178.99646374934 
1737	 9141.98048742518 
1738	 9103.00265642229 
1739	 9065.27895967228 
1740	 9033.21457863685 
1741	 8994.71552094133 
1742	 8952.49695532427 
1743	 8907.17283640476 
1744	 8856.84207718901 
1745	 8825.67744553945 
1746	 8786.69083536046 
1747	 8752.23064993998 
1748	 8722.97505633762 
1749	 8684.74496890055 
1750	 8638.54120084184 
1751	 8596.58296575015 
1752	 8556.72085983071 
1753	 8512.55482183831 
1754	 8473.53523651675 
1755	 8435.781771134 
1756	 8399.32729176818 
1757	 8361.49703055232 
1758	 8318.35684516691 
1759	 8277.65477223125 
1760	 8232.36930805555 
1761	 8183.40556901739 
1762	 8138.6492144096 
1763	 8094.69276939044 
1764	 8049.86517543833 
1765	 8006.70216849138 
1766	 7969.24440625405 
1767	 7928.72047679543 
1768	 7885.63172457601 
1769	 7847.8391097397 
1770	 7804.26921532891 
1771	 7759.06065239124 
1772	 7720.3963076128 
1773	 7683.93183901613 
1774	 7646.71424737887 
1775	 7611.67624950155 
1776	 7578.38979922969 
1777	 7539.58159810951 
1778	 7500.28991800138 
1779	 7462.94277444182 
1780	 7424.75045396549 
1781	 7385.61068467372 
1782	 7352.67228786046 
1783	 7326.95578979673 
1784	 7294.02457240954 
1785	 7263.39281631698 
1786	 7226.21922039041 
1787	 7179.90819415937 
1788	 7139.57343197792 
1789	 7098.49789008209 
1790	 7062.44394948387 
1791	 7032.31731846863 
1792	 6992.33586313253 
1793	 6950.050505133 
1794	 6908.52718560102 
1795	 6860.39116062804 
1796	 6821.75268334865 
1797	 6782.24708411818 
1798	 6734.7349304974 
1799	 6699.38195075732 
1800	 6665.86575546537 
1801	 11683.3110379063 
1802	 11825.8929407085 
1803	 11960.1088109155 
1804	 12098.4739560474 
1805	 12230.5256479587 
1806	 12346.5381402914 
1807	 12456.4601967725 
1808	 12555.3046401971 
1809	 12636.1435686294 
1810	 12715.106329769 
1811	 12787.1150338291 
1812	 12854.1125236291 
1813	 12908.4552439031 
1814	 12971.8635775028 
1815	 13024.5533009715 
1816	 13068.4335068692 
1817	 13102.3909543741 
1818	 13133.6630555813 
1819	 13185.6482506541 
1820	 13254.1109828465 
1821	 13313.9856909621 
1822	 13388.9068961505 
1823	 13453.5145139666 
1824	 13500.075178269 
1825	 13546.9456040372 
1826	 13591.4199939994 
1827	 13643.0934850451 
1828	 13693.1307331407 
1829	 13752.252253848 
1830	 13788.7427615871 
1831	 13822.7157691812 
1832	 13844.4761022273 
1833	 13829.7838189181 
1834	 13806.3939458107 
1835	 13782.7920782559 
1836	 13763.935050888 
1837	 13763.8837772309 
1838	 13806.8601230447 
1839	 13871.0514453544 
1840	 13984.6628561905 
1841	 14066.0386069592 
1842	 14175.4885506686 
1843	 14262.567548877 
1844	 14266.9274892829 
1845	 14284.3446432137 
1846	 14304.5976213076 
1847	 14296.3001921916 
1848	 14321.6421787431 
1849	 14400.2243278045 
1850	 14428.3125425082 
1851	 14443.4413169005 
1852	 14453.3980709255 
1853	 14445.5303239492 
1854	 14409.0551240865 
1855	 14358.4380257024 
1856	 14325.125277396 
1857	 14289.0483238989 
1858	 14250.5986876502 
1859	 14217.3867807919 
1860	 14219.0585864189 
1861	 14167.5807961859 
1862	 14111.5517961735 
1863	 14013.8333935623 
1864	 13862.9659351633 
1865	 13662.9387639616 
1866	 13396.682240255 
1867	 13121.178865622 
1868	 12833.6372287755 
1869	 12563.0039262864 
1870	 12338.435122273 
1871	 12145.4258374654 
1872	 11976.2559299266 
1873	 11863.9956741342 
1874	 11762.4166608595 
1875	 11679.6172044879 
1876	 11615.6387755902 
1877	 11533.1801237349 
1878	 11446.2791096707 
1879	 11324.8077320125 
1880	 11171.7642681298 
1881	 11000.2108012429 
1882	 10799.5332834625 
1883	 10576.4122720015 
1884	 10353.0267037878 
1885	 10122.9072755807 
1886	 9886.3320598973 
1887	 9664.48869101174 
1888	 9443.96782630948 
1889	 9237.76017179555 
1890	 9065.36244344418 
1891	 8889.77290956576 
1892	 8718.52275875347 
1893	 8567.00236703651 
1894	 8424.02763404208 
1895	 8259.36390217707 
1896	 8115.1460697383 
1897	 7965.22183287684 
1898	 7800.17895407634 
1899	 7658.77800150842 
1900	 7517.22047392596 
1901	 7379.20000155546 
1902	 7271.43877334374 
1903	 7184.8732225906 
1904	 7117.23468328067 
1905	 7073.93632905136 
1906	 7053.92911274952 
1907	 7040.77038939916 
1908	 7030.29210709733 
1909	 7014.62025642631 
1910	 6978.47189318872 
1911	 6939.33833179721 
1912	 6900.89410877271 
1913	 6864.88817383278 
1914	 6823.91355654754 
1915	 6802.92827521288 
1916	 6778.80808906996 
1917	 6743.19345463235 
1918	 6706.18200474629 
1919	 6669.41646403574 
1920	 6651.64730134382 
1921	 6656.80714267043 
1922	 6673.08959599044 
1923	 6695.01752273329 
1924	 6710.60172020255 
1925	 6728.95968815279 
1926	 6730.54064810995 
1927	 6731.03901192966 
1928	 6741.36426748164 
1929	 6744.5897634633 
1930	 6750.97081322082 
1931	 6764.37394262488 
1932	 6779.13692579769 
1933	 6791.60645749787 
1934	 6798.65641487512 
1935	 6810.71620103282 
1936	 6824.42636402814 
1937	 6830.2448455185 
1938	 6844.41387210079 
1939	 6875.10794203593 
1940	 6895.68838212263 
1941	 6912.34972726485 
1942	 6932.58965991922 
1943	 6944.7950807811 
1944	 6965.80178693043 
1945	 6994.58938473181 
1946	 7012.54470585467 
1947	 7022.27681430228 
1948	 7041.50321686985 
1949	 7058.73332115494 
1950	 7075.98774734256 
1951	 7104.75151109987 
1952	 7142.15441430803 
1953	 7161.66209247101 
1954	 7175.60440103822 
1955	 7195.47791159274 
1956	 7206.92670424673 
1957	 7239.37139665187 
1958	 7277.82068617591 
1959	 7305.81433176282 
1960	 7333.43848143393 
1961	 7359.10508065665 
1962	 7361.88789618536 
1963	 7369.77001095922 
1964	 7404.95182788299 
1965	 7439.54803221513 
1966	 7472.74378283421 
1967	 7518.67529101112 
1968	 7541.77428902351 
1969	 7550.47479386695 
1970	 7564.05334432435 
1971	 7574.11712638595 
1972	 7585.64035896253 
1973	 7592.87507003734 
1974	 7610.13408052185 
1975	 7628.06625871843 
1976	 7650.55421243591 
1977	 7671.51377957263 
1978	 7690.71501811511 
1979	 7714.97098526205 
1980	 7736.2063751234 
1981	 7753.19615085282 
1982	 7772.13585611794 
1983	 7790.69502226679 
1984	 7805.51644613666 
1985	 7825.69701585274 
1986	 7852.62895906975 
1987	 7870.16244967568 
1988	 7888.40459974351 
1989	 7913.58788722788 
1990	 7929.15276671528 
1991	 7950.82437801247 
1992	 7976.68630033707 
1993	 7987.66049065831 
1994	 8005.87860957523 
1995	 8027.39809674869 
1996	 8048.16491400305 
1997	 8072.76171673839 
1998	 8091.18895492083 
1999	 8106.95585654379 
2000	 8119.90176863015 
2001	 8129.99108466938 
2002	 8146.01947788308 
2003	 8165.79984384216 
2004	 8184.73797746 
2005	 8205.46337990566 
2006	 8213.96530903173 
2007	 8226.9687233132 
2008	 8239.82958436917 
2009	 8253.44439417084 
2010	 8267.13160520733 
2011	 8284.36925818783 
2012	 8304.60731560447 
2013	 8322.6931643614 
2014	 8337.69168794001 
2015	 8343.78619235751 
2016	 8360.70704777709 
2017	 8371.07094555024 
2018	 8379.47065513233 
2019	 8400.87788983016 
2020	 8408.28565465303 
2021	 8406.29327470002 
2022	 8402.05625376905 
2023	 8388.74267790994 
2024	 8380.4216652612 
2025	 8367.33840654765 
2026	 8360.29014239419 
2027	 8364.22798345692 
2028	 8370.37273628823 
2029	 8377.57874025881 
2030	 8384.66000296587 
2031	 8382.57656386607 
2032	 8377.92426622896 
2033	 8375.12893232893 
2034	 8366.41778501227 
2035	 8367.37969734273 
2036	 8379.00169793626 
2037	 8380.35468386197 
2038	 8383.39348090894 
2039	 8380.1399966569 
2040	 8369.2731107112 
2041	 8354.80800029557 
2042	 8344.99783273899 
2043	 8339.31179713299 
2044	 8334.55338497906 
2045	 8327.35740466807 
2046	 8310.56275635158 
2047	 8292.16296582696 
2048	 8276.56634928282 
2049	 8254.91785363767 
2050	 8241.55380674112 
2051	 8238.07414004358 
2052	 8229.31192677026 
2053	 8220.91676864498 
2054	 8211.59635359087 
2055	 8202.11589457731 
2056	 8185.13953257125 
2057	 8176.08625782863 
2058	 8166.80298366954 
2059	 8157.83980287954 
2060	 8159.7844375199 
2061	 8152.99177323512 
2062	 8141.98250823001 
2063	 8135.20905030036 
2064	 8125.74113504377 
2065	 8119.94397472001 
2066	 8118.00484946219 
2067	 8117.46237888349 
2068	 8122.80303902258 
2069	 8119.35317020456 
2070	 8116.31777079511 
2071	 8108.02408231785 
2072	 8092.99651902751 
2073	 8082.30804065861 
2074	 8077.24405966873 
2075	 8073.17210108831 
2076	 8072.13115833827 
2077	 8079.78072221442 
2078	 8078.7976814284 
2079	 8073.80566100978 
2080	 8071.46722946174 
2081	 8065.52397912191 
2082	 8063.10181632408 
2083	 8060.53914787845 
2084	 8069.36326661311 
2085	 8071.47237734972 
2086	 8060.52116541482 
2087	 8058.18466220411 
2088	 8047.43820480298 
2089	 8032.86690487521 
2090	 8031.61899057658 
2091	 8027.56027542335 
2092	 8023.66433754786 
2093	 8023.85825888809 
2094	 8033.37895174688 
2095	 8032.93142564135 
2096	 8031.54626812931 
2097	 8027.71395719657 
2098	 8016.2417955455 
2099	 8008.28428115016 
2100	 8002.06581649828 
2101	 7991.07801950068 
2102	 7983.23204763481 
2103	 7989.21987715104 
2104	 7984.38494701442 
2105	 7975.57463235823 
2106	 7970.25343427496 
2107	 7966.04566116947 
2108	 7963.29758546326 
2109	 7968.34049112377 
2110	 7968.25292814663 
2111	 7960.33873836885 
2112	 7957.49917370692 
2113	 7960.66387128915 
2114	 7959.33635739199 
2115	 7957.13695267913 
2116	 7959.64538342115 
2117	 7961.88566368131 
2118	 7962.11650655934 
2119	 7970.12122401974 
2120	 7973.34476070188 
2121	 7979.78057266405 
2122	 7983.82135442721 
2123	 7977.74905797323 
2124	 7974.38498559404 
2125	 7969.21894897454 
2126	 7955.88848483478 
2127	 7947.64529875137 
2128	 7945.65704338579 
2129	 7937.1562768822 
2130	 7919.8508518955 
2131	 7913.71181001896 
2132	 7917.89139028256 
2133	 7909.73573290061 
2134	 7896.38193449645 
2135	 7893.73508532108 
2136	 7880.51544556595 
2137	 7862.01420559241 
2138	 7864.54891183979 
2139	 7863.26167547919 
2140	 7857.94389173954 
2141	 7862.11750679726 
2142	 7854.59105908687 
2143	 7842.85060392631 
2144	 7834.47426286673 
2145	 7821.35787897277 
2146	 7813.82362006406 
2147	 7813.34475654457 
2148	 7807.96488852003 
2149	 7802.84269480379 
2150	 7797.33499528134 
2151	 7790.96559389298 
2152	 7782.78557139536 
2153	 7775.11758321996 
2154	 7754.37591550252 
2155	 7736.69901098077 
2156	 7721.49686950391 
2157	 7703.91553484253 
2158	 7710.64435933998 
2159	 7713.80268465439 
2160	 7709.31693951651 
2161	 7705.23784798091 
2162	 7700.67875336724 
2163	 7687.42243248114 
2164	 7669.45815697163 
2165	 7656.48897154041 
2166	 7639.00920815994 
2167	 7625.95979003861 
2168	 7617.07415284853 
2169	 7604.68729774999 
2170	 7588.36252004433 
2171	 7577.87160025035 
2172	 7568.63543625463 
2173	 7564.78665581945 
2174	 7562.64101554328 
2175	 7567.09459769815 
2176	 7567.8167578077 
2177	 7551.52377680313 
2178	 7529.46442869317 
2179	 7504.65806939299 
2180	 7480.02229773476 
2181	 7465.86622423448 
2182	 7446.63522912885 
2183	 7426.56717102823 
2184	 7409.02775276229 
2185	 7388.30294687081 
2186	 7375.52792733556 
2187	 7370.72033811585 
2188	 7366.00288784992 
2189	 7370.43394649002 
2190	 7360.37906916793 
2191	 7348.27807373701 
2192	 7328.27269126075 
2193	 7290.07628814644 
2194	 7259.94133071665 
2195	 7239.69557152143 
2196	 7220.78606271496 
2197	 7211.15983452554 
2198	 7194.07260665789 
2199	 7176.12917420909 
2200	 7160.59745989853 
2201	 7137.1482721146 
2202	 7124.6002708178 
2203	 7097.44541370831 
2204	 7063.88115454069 
2205	 7041.63811745376 
2206	 7024.27653339818 
2207	 7004.20243906997 
2208	 6990.06706791848 
2209	 6973.12336049953 
2210	 6954.02910236763 
2211	 6933.0127729809 
2212	 6916.25014430592 
2213	 6892.76614775543 
2214	 6863.88973260498 
2215	 6831.04853474629 
2216	 6796.13227600954 
2217	 6767.84900531209 
2218	 6739.67113350793 
2219	 6709.9985318058 
2220	 6688.56234525017 
2221	 6656.31146052386 
2222	 6620.9372374487 
2223	 6601.10030775862 
2224	 6575.12567868215 
2225	 6542.24229687951 
2226	 6520.65883342667 
2227	 6492.21942156084 
2228	 6461.14828242293 
2229	 6430.42258084966 
2230	 6399.41146177304 
2231	 6365.44382749916 
2232	 6328.73029032146 
2233	 6290.89106069341 
2234	 6251.1727323104 
2235	 6203.58023024518 
2236	 6161.72516118148 
2237	 6124.95782342276 
2238	 6085.52773460354 
2239	 6049.50733647094 
2240	 6004.19434976204 
2241	 5958.98218819689 
2242	 5918.35302360956 
2243	 5874.36398566634 
2244	 5828.24795943153 
2245	 5777.73444374293 
2246	 5722.93245987472 
2247	 5665.35890794791 
2248	 5616.73676435346 
2249	 5575.50173209002 
2250	 5529.45404723014 
2251	 5485.37350814021 
2252	 5442.6139462316 
2253	 5390.63428017807 
2254	 5339.06542236504 
2255	 5292.01986662328 
2256	 5242.78228550047 
2257	 5195.89126488794 
2258	 5157.60358681298 
2259	 5114.68489824853 
2260	 5063.79188688669 
2261	 5027.37158148981 
2262	 5008.06340418293 
2263	 4966.85597483807 
2264	 4921.85295768434 
2265	 4874.31663312744 
2266	 4802.34211842563 
2267	 4749.22009454675 
2268	 4704.90574551556 
2269	 4668.21307135623 
2270	 4636.67925800815 
2271	 4603.90957830268 
2272	 4566.67227116916 
2273	 4536.5846910305 
2274	 4503.33981013544 
2275	 4475.79358767327 
2276	 4454.21505968448 
2277	 4411.9498150335 
2278	 4368.74086218783 
2279	 4332.03515762536 
2280	 4282.8127029463 
2281	 4254.50441307252 
2282	 4238.782000813 
2283	 4203.68066474606 
2284	 4178.8295504971 
2285	 4163.75954807066 
2286	 4134.8207899711 
2287	 4109.59771833146 
2288	 4078.57408435104 
2289	 4037.60992084112 
2290	 4000.52511077049 
2291	 3963.6109585921 
2292	 3927.99856386517 
2293	 3899.77128235311 
2294	 3862.357389524 
2295	 3815.35812552662 
2296	 3774.40264104984 
2297	 3727.58386184698 
2298	 3691.66975496074 
2299	 3668.80554433414 
2300	 3638.98723642938 
2301	 3611.0123681911 
2302	 3580.90240157232 
2303	 3543.9806328304 
2304	 3504.91557466294 
2305	 3471.84793758718 
2306	 3435.16568087334 
2307	 3397.18302369978 
2308	 3363.75162718082 
2309	 3328.44613934238 
2310	 3299.11005928297 
2311	 3278.45318286198 
2312	 3255.77716035958 
2313	 3233.60320733469 
2314	 3203.80294973806 
2315	 3166.36883263561 
2316	 3137.34001816591 
2317	 3111.76605906424 
2318	 3088.20631921491 
2319	 3066.00005048051 
2320	 3039.86363238212 
2321	 3008.24185604995 
2322	 2974.03466376702 
2323	 2941.50954497705 
2324	 2910.94885565227 
2325	 2882.00183431393 
2326	 2855.56581452064 
2327	 2832.10643842198 
2328	 2807.5213092974 
2329	 2779.87568424351 
2330	 2752.09759849458 
2331	 2727.49147665763 
2332	 2706.83291623945 
2333	 2680.87430508531 
2334	 2656.25569884213 
2335	 2625.11312929323 
2336	 2578.45105537907 
2337	 2547.31589603044 
2338	 2524.52270170672 
2339	 2500.7546637718 
2340	 2489.30853033892 
2341	 2470.97128998605 
2342	 2444.11998383172 
2343	 2420.33766144066 
2344	 2399.48074602655 
2345	 2371.5265208522 
2346	 2337.98132740142 
2347	 2309.7336559402 
2348	 2282.68335307999 
2349	 2249.6847390957 
2350	 2219.57537707526 
2351	 2198.37658943708 
2352	 2173.40239393155 
2353	 2151.52845975221 
2354	 2141.91617454493 
2355	 2130.72379994687 
2356	 2111.35238282606 
2357	 2096.03040954122 
2358	 2067.67687028971 
2359	 2035.24397254236 
2360	 2020.49256049989 
2361	 1998.15730240078 
2362	 1973.53446850821 
2363	 1945.88728663243 
2364	 1913.80037376623 
2365	 1895.7988272624 
2366	 1886.96974639903 
2367	 1884.42594163722 
2368	 1871.05017811711 
2369	 1838.75510388024 
2370	 1804.72653637962 
2371	 1766.9842860383 
2372	 1738.14399993444 
2373	 1718.74799276269 
2374	 1704.0576827044 
2375	 1703.25683343782 
2376	 1687.57015023771 
2377	 1667.09591758461 
2378	 1648.5284831076 
2379	 1618.15329138931 
2380	 1597.27387201893 
2381	 1581.65487695823 
2382	 1565.99959351201 
2383	 1554.11478824719 
2384	 1544.71158807342 
2385	 1529.58154931609 
2386	 1505.52656880899 
2387	 1485.84675761765 
2388	 1462.37964643814 
2389	 1436.97576011995 
2390	 1419.90458889518 
2391	 1400.69138406653 
2392	 1381.96318228216 
2393	 1366.89445685008 
2394	 1350.14051560424 
2395	 1329.8605499586 
2396	 1319.7938348514 
2397	 1308.46337339942 
2398	 1283.28249803359 
2399	 1268.09153486853 
2400	 1248.78149929149 
2401	 1227.21207812461 
2402	 1216.72835173396 
2403	 1200.9007820042 
2404	 1181.70146270084 
2405	 1157.89560262337 
2406	 1145.30347676275 
2407	 1140.39050590933 
2408	 1120.16598242973 
2409	 1109.5614536245 
2410	 1107.69707182635 
2411	 1090.35080502334 
2412	 1075.28732336471 
2413	 1066.51223321347 
2414	 1040.31626811548 
2415	 1019.41310919048 
2416	 1012.23434788466 
2417	 998.590979165088 
2418	 986.263842573753 
2419	 970.542368868275 
2420	 950.256753189121 
2421	 933.824128628656 
2422	 923.093757397308 
2423	 914.723600572669 
2424	 903.311477754753 
2425	 889.7588243694 
2426	 870.330046471793 
2427	 856.334076868086 
2428	 852.063100554223 
2429	 844.521663073599 
2430	 839.896337758228 
2431	 825.465872618741 
2432	 805.909882975102 
2433	 799.532907326566 
2434	 788.67755744978 
2435	 776.179690500303 
2436	 769.72138209653 
2437	 756.889046205371 
2438	 741.316930792864 
2439	 734.502361184223 
2440	 722.004091573264 
2441	 702.872906415798 
2442	 691.097438535491 
2443	 680.94560154007 
2444	 666.580270679037 
2445	 656.29232031206 
2446	 651.006458919717 
2447	 644.166865541582 
2448	 643.627932817457 
2449	 643.333151416143 
2450	 637.818380344663 
2451	 626.338305964737 
2452	 607.35628528946 
2453	 587.348519817191 
2454	 569.445187096016 
2455	 567.626999374138 
2456	 567.023478061485 
2457	 557.619814492431 
2458	 556.15966177704 
2459	 541.562535017317 
2460	 526.772457319296 
2461	 524.748972062903 
2462	 512.980146485564 
2463	 504.739897333428 
2464	 493.635625530822 
2465	 481.897072793001 
2466	 477.827674396716 
2467	 462.084827519049 
2468	 456.408172893763 
2469	 458.839156387439 
2470	 449.720790276858 
2471	 442.950482305761 
2472	 430.589167721684 
2473	 416.577707262609 
2474	 419.35300221082 
2475	 429.602809094616 
2476	 440.711309820115 
2477	 445.286123870606 
2478	 434.713255877572 
2479	 417.470174164581 
2480	 399.283091637518 
2481	 383.983358280479 
2482	 374.308198639832 
2483	 372.220474841804 
2484	 374.003579120549 
2485	 372.105343396474 
2486	 364.532311369693 
2487	 355.293957113637 
2488	 345.707552552116 
2489	 346.688883233706 
2490	 353.983592482563 
2491	 350.175670134412 
2492	 343.589564688748 
2493	 328.845985356502 
2494	 319.325680654047 
2495	 318.992050180882 
2496	 304.490901488853 
2497	 301.235492543579 
2498	 298.464232839164 
2499	 288.841389757633 
2500	 302.761682505008 
