Wavelength	spectrum00003.asd
350	 15.4978493400357 
351	 17.4846040483237 
352	 17.6976552747387 
353	 17.7743489375176 
354	 19.6230475428353 
355	 20.0849080794767 
356	 21.1459553851653 
357	 22.6258505159305 
358	 22.6437918345725 
359	 24.4825845539388 
360	 26.2985240667504 
361	 26.8818659882149 
362	 28.6873914016016 
363	 29.0773336273096 
364	 29.5203961836781 
365	 32.5188977263392 
366	 35.465765880595 
367	 37.939568204212 
368	 39.9507710124567 
369	 41.8306660645772 
370	 43.948384342108 
371	 46.2507662567008 
372	 48.5121847073082 
373	 50.3056315268182 
374	 52.7965345901192 
375	 55.1459003683166 
376	 55.6819953340323 
377	 59.085290751983 
378	 62.1547368878001 
379	 63.2154723340773 
380	 65.5058522591987 
381	 67.2790549364063 
382	 70.0590929329682 
383	 75.2050147513024 
384	 77.3203158713287 
385	 78.7859285900645 
386	 81.0013591343714 
387	 83.8339542634482 
388	 87.5725208122096 
389	 90.7096036312514 
390	 92.6727008073329 
391	 96.9697229493441 
392	 100.291160165126 
393	 102.427468960229 
394	 104.972577027658 
395	 107.573043736616 
396	 110.921777748699 
397	 114.979194996296 
398	 118.150563408242 
399	 122.944908730399 
400	 128.395754774701 
401	 132.78258071725 
402	 137.168954051071 
403	 142.045332370178 
404	 146.92377808843 
405	 150.454304329613 
406	 156.62178301111 
407	 163.28603058271 
408	 167.966660788326 
409	 170.904396457476 
410	 177.611085244355 
411	 186.996982355811 
412	 194.101744607534 
413	 200.332259402537 
414	 206.988086685548 
415	 214.823133147628 
416	 223.606146334693 
417	 232.543438297348 
418	 240.585394010488 
419	 247.424945787816 
420	 256.804354162802 
421	 267.866917594874 
422	 278.695045512555 
423	 286.640779182352 
424	 296.868015343619 
425	 309.14464665359 
426	 321.593907099021 
427	 331.684410622723 
428	 342.040505794155 
429	 353.381647254779 
430	 365.10172972948 
431	 378.412410280729 
432	 392.054734329961 
433	 404.75922987789 
434	 415.92372239447 
435	 426.851328039204 
436	 437.939400186485 
437	 449.492910110288 
438	 464.119002100304 
439	 477.70250796831 
440	 488.980607585571 
441	 501.382743993951 
442	 512.769638162773 
443	 524.89631998683 
444	 539.021552576496 
445	 549.893641416354 
446	 560.125388575776 
447	 570.88371066594 
448	 581.761772767321 
449	 591.342486558604 
450	 601.000535147212 
451	 611.371586560643 
452	 619.399808520693 
453	 627.708884921784 
454	 635.985984204729 
455	 642.511625514944 
456	 648.659110954449 
457	 655.162717302253 
458	 661.712582341227 
459	 666.143405431721 
460	 671.114005815612 
461	 676.261548039835 
462	 680.542768348327 
463	 685.79319742118 
464	 690.752365405502 
465	 694.601342351164 
466	 697.292344049641 
467	 700.853826632131 
468	 705.74162037549 
469	 711.66361259188 
470	 717.791493540512 
471	 722.256216287811 
472	 725.686321306572 
473	 730.647776286345 
474	 736.727950140811 
475	 742.169488440484 
476	 746.566520156244 
477	 753.739124498833 
478	 760.175233345222 
479	 765.621754782136 
480	 771.446422225968 
481	 777.779311954482 
482	 783.814303471622 
483	 789.459605013035 
484	 796.029814495142 
485	 803.139715273652 
486	 810.024456872847 
487	 815.941687415834 
488	 820.950882743133 
489	 827.885843027255 
490	 836.604038381718 
491	 843.429672565739 
492	 850.994747148954 
493	 859.331463995883 
494	 868.367672330706 
495	 880.342973769013 
496	 890.571650148555 
497	 899.547327717579 
498	 911.691851064541 
499	 924.398745179322 
500	 937.780589868127 
501	 951.858887419069 
502	 965.008856259181 
503	 980.891425658478 
504	 998.439190771136 
505	 1014.64314385114 
506	 1032.99736676497 
507	 1051.71805604885 
508	 1070.70236695098 
509	 1093.93897195585 
510	 1116.77733930781 
511	 1140.77920408423 
512	 1168.59879872291 
513	 1195.97800024994 
514	 1224.63143022468 
515	 1256.19064000599 
516	 1291.7255228728 
517	 1325.61009539327 
518	 1361.53683905152 
519	 1403.08069822849 
520	 1443.89826789714 
521	 1485.63228301855 
522	 1529.23659910922 
523	 1574.85014125022 
524	 1619.6119901069 
525	 1665.92832733918 
526	 1715.0331937501 
527	 1762.76350949735 
528	 1808.96849185627 
529	 1854.87519259327 
530	 1902.12354467524 
531	 1947.22308765895 
532	 1991.90340564631 
533	 2037.88441791942 
534	 2086.21231238731 
535	 2130.07071909307 
536	 2171.51186404782 
537	 2214.80878721553 
538	 2255.18329525377 
539	 2295.68254342428 
540	 2336.27006794868 
541	 2372.48611258652 
542	 2410.25670912234 
543	 2448.38416729212 
544	 2485.33049461839 
545	 2526.53217779478 
546	 2565.87038307588 
547	 2602.60985718056 
548	 2640.69471273854 
549	 2677.37742640777 
550	 2714.15856770104 
551	 2751.76697521401 
552	 2787.06320128055 
553	 2819.26882817027 
554	 2848.90253213883 
555	 2876.95571124969 
556	 2899.94396650541 
557	 2921.15823169033 
558	 2942.11138701637 
559	 2959.56972451574 
560	 2972.64416010482 
561	 2982.12871073692 
562	 2989.18876976511 
563	 2991.94127942086 
564	 2991.21351875542 
565	 2987.61793059679 
566	 2981.22859249687 
567	 2972.87664276384 
568	 2962.65115302788 
569	 2950.87064297906 
570	 2938.99086700031 
571	 2930.92932347086 
572	 2926.40803768178 
573	 2921.69805999775 
574	 2921.36414478964 
575	 2923.33339488558 
576	 2926.01481582408 
577	 2932.63257467452 
578	 2941.43684405248 
579	 2953.46984381114 
580	 2970.59775530212 
581	 2987.95463719617 
582	 3003.22343023715 
583	 3016.33617255442 
584	 3031.11988952139 
585	 3038.64031492739 
586	 3041.18826265215 
587	 3044.51305984662 
588	 3046.64044478957 
589	 3048.46759820084 
590	 3050.62852367811 
591	 3053.26929805627 
592	 3054.61461649918 
593	 3052.3124459819 
594	 3045.83452057711 
595	 3041.38000840588 
596	 3035.83944992936 
597	 3030.29777812536 
598	 3029.03524978344 
599	 3029.10202488235 
600	 3029.60047402309 
601	 3029.93266094 
602	 3029.40715187223 
603	 3027.86603694494 
604	 3025.75881777691 
605	 3023.69087916285 
606	 3020.56830459097 
607	 3015.9723691347 
608	 3010.64313029519 
609	 3007.11844291691 
610	 3003.23818308738 
611	 2998.90587320455 
612	 2994.31360561269 
613	 2987.32363528288 
614	 2981.83421060963 
615	 2978.71810843194 
616	 2975.38227432813 
617	 2972.91605416413 
618	 2971.73556611105 
619	 2972.34331111719 
620	 2975.9545705466 
621	 2981.57634886151 
622	 2987.02378589817 
623	 2990.06792494525 
624	 2997.11385155429 
625	 3006.36874261201 
626	 3015.85591795535 
627	 3025.83478959063 
628	 3036.14087661933 
629	 3045.98020682547 
630	 3054.51730046776 
631	 3062.52384169677 
632	 3068.72370524885 
633	 3072.87433256317 
634	 3076.21623027334 
635	 3076.18732780726 
636	 3073.26666002029 
637	 3068.89385259035 
638	 3064.57073444898 
639	 3059.52084703117 
640	 3053.33111116236 
641	 3045.92434213006 
642	 3037.07108923267 
643	 3028.90543307955 
644	 3022.57015551501 
645	 3015.98580861994 
646	 3010.92802162863 
647	 3007.05337635055 
648	 3003.49290464298 
649	 3002.59652544004 
650	 3003.26301679271 
651	 3004.96110488128 
652	 3008.3955160076 
653	 3012.74045006417 
654	 3018.02601574662 
655	 3024.25794084713 
656	 3030.43811251692 
657	 3036.38605027268 
658	 3043.00709781068 
659	 3051.76792078684 
660	 3058.26522306647 
661	 3066.55557818548 
662	 3078.91586998218 
663	 3089.91556766189 
664	 3101.97162554526 
665	 3115.27933279355 
666	 3129.42460096685 
667	 3146.16417745612 
668	 3164.20967137166 
669	 3182.96039244377 
670	 3203.09415058165 
671	 3225.63139823181 
672	 3249.26745902041 
673	 3272.92172438879 
674	 3298.89915811282 
675	 3326.80430135527 
676	 3355.87637151895 
677	 3385.28875642037 
678	 3416.75560967711 
679	 3450.54219803357 
680	 3486.57508115111 
681	 3524.8176960008 
682	 3563.18274030792 
683	 3603.35789188196 
684	 3648.37435632742 
685	 3698.9392994291 
686	 3751.22974011392 
687	 3806.28593719819 
688	 3870.95596966014 
689	 3939.85397280079 
690	 4016.03042151381 
691	 4103.32595418319 
692	 4201.27988398009 
693	 4312.96232347883 
694	 4440.35300267211 
695	 4584.49357143786 
696	 4744.53292954373 
697	 4924.59778237334 
698	 5125.73101807586 
699	 5342.79032070314 
700	 5582.55713678007 
701	 5839.47552108739 
702	 6106.34075387149 
703	 6387.96610796152 
704	 6680.91851725876 
705	 6983.53042560234 
706	 7295.63300395365 
707	 7611.64697470833 
708	 7933.68858119225 
709	 8264.36278292888 
710	 8604.4009384168 
711	 8948.82866147589 
712	 9298.19847360566 
713	 9654.68146983868 
714	 10014.5247474509 
715	 10379.9935359832 
716	 10750.8786852201 
717	 11123.8222258302 
718	 11500.6319334086 
719	 11882.830494196 
720	 12270.4050158042 
721	 12659.8624245182 
722	 13047.8129776834 
723	 13432.3469213406 
724	 13812.8210592933 
725	 14190.3028210429 
726	 14562.0308832546 
727	 14929.1703968653 
728	 15298.7249665292 
729	 15660.253904239 
730	 16014.7074340015 
731	 16364.5278883884 
732	 16706.059392714 
733	 17040.8943852541 
734	 17368.2252207087 
735	 17686.0819925147 
736	 17996.8792237611 
737	 18299.9856881044 
738	 18595.7632906551 
739	 18886.7049431792 
740	 19171.818463334 
741	 19448.7451549075 
742	 19716.4901072037 
743	 19982.2615857544 
744	 20231.0521620475 
745	 20460.9882828754 
746	 20681.8629914911 
747	 20914.8147439863 
748	 21143.8638857796 
749	 21362.5990057114 
750	 21590.4326107119 
751	 21807.1500155224 
752	 22017.076645194 
753	 22227.9915916384 
754	 22429.5304616068 
755	 22627.1043344401 
756	 22825.0260365796 
757	 23025.2743105141 
758	 23219.0733560376 
759	 23401.4166994914 
760	 23574.9499643073 
761	 23753.3986975334 
762	 23933.1576607883 
763	 24113.3643403806 
764	 24291.4108666364 
765	 24457.2313108871 
766	 24615.7874757826 
767	 24770.1510330752 
768	 24921.5990757604 
769	 25069.3067058427 
770	 25210.4914574513 
771	 25351.4043683596 
772	 25512.283360772 
773	 25663.9676250264 
774	 25795.5473986055 
775	 25905.9112724141 
776	 26006.4142632363 
777	 26095.2874698654 
778	 26174.1829747903 
779	 26247.436254271 
780	 26324.0260224425 
781	 26394.6125577827 
782	 26455.5176780953 
783	 26512.8302082615 
784	 26564.4576511158 
785	 26611.9587992354 
786	 26656.0692352541 
787	 26693.5407403773 
788	 26723.4589645616 
789	 26746.2569961076 
790	 26763.4130207733 
791	 26777.1841147128 
792	 26786.8914646619 
793	 26793.267377328 
794	 26798.2920809815 
795	 26796.8505507109 
796	 26789.6468847896 
797	 26777.9759682857 
798	 26762.2112312105 
799	 26738.4480603096 
800	 26707.6209516311 
801	 26671.7036364663 
802	 26630.0019882573 
803	 26573.6526272576 
804	 26510.5828385191 
805	 26457.9665514366 
806	 26400.98008301 
807	 26340.0669270422 
808	 26278.0749923912 
809	 26218.4911592862 
810	 26144.6700493537 
811	 26065.3498754045 
812	 25989.8122206053 
813	 25911.015517345 
814	 25823.6831317384 
815	 25725.8637869276 
816	 25618.7112184949 
817	 25507.9683264016 
818	 25393.9499579903 
819	 25278.3320388539 
820	 25163.7039600793 
821	 25046.3555354594 
822	 24923.4654068183 
823	 24795.1070203642 
824	 24665.6237919517 
825	 24534.1648924273 
826	 24400.1711712787 
827	 24262.8210972113 
828	 24119.8604829105 
829	 23979.9000915872 
830	 23840.6805360605 
831	 23696.025106022 
832	 23552.0495550045 
833	 23403.788894204 
834	 23250.5601749296 
835	 23096.6037633864 
836	 22948.1203162224 
837	 22802.8806841417 
838	 22659.117165082 
839	 22518.3678941612 
840	 22377.1404995672 
841	 22236.7274603186 
842	 22097.9723715985 
843	 21956.1480190146 
844	 21816.8471459918 
845	 21680.1390523394 
846	 21544.1776476797 
847	 21410.8262565568 
848	 21280.8403553393 
849	 21151.509001103 
850	 21018.8095997859 
851	 20892.2219753901 
852	 20764.0881705398 
853	 20632.987631421 
854	 20507.9227071061 
855	 20378.9935758623 
856	 20248.2326139255 
857	 20118.9712503522 
858	 19991.0648209339 
859	 19869.4079753606 
860	 19753.4342983825 
861	 19639.0241927186 
862	 19518.5577543071 
863	 19388.4648026649 
864	 19255.0231968986 
865	 19127.0062161093 
866	 18993.9235175241 
867	 18859.3225005029 
868	 18725.3637948113 
869	 18591.981480486 
870	 18458.5381795333 
871	 18323.3843002965 
872	 18186.3264734005 
873	 18049.1829086205 
874	 17910.0382287762 
875	 17770.1716327177 
876	 17630.2758698589 
877	 17488.1323641283 
878	 17349.0883414287 
879	 17212.4178488904 
880	 17074.3558033471 
881	 16928.0281035168 
882	 16782.37782475 
883	 16639.9702046075 
884	 16499.2968578981 
885	 16355.9565911555 
886	 16212.4453752181 
887	 16068.185711091 
888	 15921.1526378263 
889	 15776.2539380887 
890	 15631.494469148 
891	 15486.8907756286 
892	 15344.5508445057 
893	 15198.618161246 
894	 15050.9178644838 
895	 14904.5388242363 
896	 14762.1881751666 
897	 14619.5649552706 
898	 14477.1252296356 
899	 14335.6688432672 
900	 14194.4290852691 
901	 14056.1705716676 
902	 13917.923550069 
903	 13776.8327139009 
904	 13634.6196867091 
905	 13496.4061941334 
906	 13361.1673117977 
907	 13226.1690248104 
908	 13092.8410025679 
909	 12957.5286472089 
910	 12821.7870231174 
911	 12689.2729044744 
912	 12559.4505116445 
913	 12430.5068626847 
914	 12300.5516488657 
915	 12168.8527312097 
916	 12041.0538170344 
917	 11914.6582052433 
918	 11788.9562241486 
919	 11665.0495799073 
920	 11539.6547627827 
921	 11415.8141122102 
922	 11294.0831291566 
923	 11171.6125565093 
924	 11049.2490403545 
925	 10926.0744649229 
926	 10802.2874073618 
927	 10679.8103508519 
928	 10559.9366233039 
929	 10438.901551378 
930	 10315.3134551862 
931	 10193.247609936 
932	 10072.1617752182 
933	 9951.99897287151 
934	 9832.57294158316 
935	 9713.33261153423 
936	 9597.75166637609 
937	 9483.53635426823 
938	 9368.71784966362 
939	 9256.17831541679 
940	 9142.34262650557 
941	 9029.13731280027 
942	 8917.84762453228 
943	 8803.00812435863 
944	 8689.39510635349 
945	 8576.53643979218 
946	 8463.12548269272 
947	 8351.13086945734 
948	 8239.3810825976 
949	 8126.42924156493 
950	 8012.35109057906 
951	 7902.76439619292 
952	 7790.95037061348 
953	 7679.89357644443 
954	 7574.06767621716 
955	 7467.10597596622 
956	 7359.58962687693 
957	 7253.06958522153 
958	 7148.70535904148 
959	 7044.17654474636 
960	 6940.94749689282 
961	 6839.04022980159 
962	 6737.87695651683 
963	 6637.79213225189 
964	 6537.89318624685 
965	 6439.31634853266 
966	 6343.34748764125 
967	 6247.48027710442 
968	 6151.51206370432 
969	 6056.4622551968 
970	 5963.29186120115 
971	 5869.76681246544 
972	 5779.63675514259 
973	 5689.52433921945 
974	 5595.53355850872 
975	 5508.01225677503 
976	 5419.75251264024 
977	 5331.0845572645 
978	 5245.46530050356 
979	 5161.45189274922 
980	 5077.78073583932 
981	 4993.24649653065 
982	 4908.28721750305 
983	 4828.89190197599 
984	 4750.16247024731 
985	 4671.33718319921 
986	 4593.51059552141 
987	 4516.76003398891 
988	 4439.17892125525 
989	 4361.88662379206 
990	 4286.62061703036 
991	 4212.48999399576 
992	 4140.5956973197 
993	 4068.64603113224 
994	 3995.34669812286 
995	 3926.25947151516 
996	 3855.7831736455 
997	 3785.60287459312 
998	 3718.11931524951 
999	 3651.06294148338 
1000	 3585.84852154675 
1001	 7811.42765095687 
1002	 7838.71123027938 
1003	 7877.79256479191 
1004	 7920.08203284575 
1005	 7965.36858431234 
1006	 8022.13168732851 
1007	 8082.55572879862 
1008	 8136.9658131572 
1009	 8191.62182287502 
1010	 8246.4454057434 
1011	 8309.49111420699 
1012	 8375.51229658865 
1013	 8448.91043464986 
1014	 8519.80792832693 
1015	 8590.79524241657 
1016	 8664.62082996305 
1017	 8736.47700844146 
1018	 8821.33023086196 
1019	 8906.26885247461 
1020	 8993.54706117142 
1021	 9088.68136051678 
1022	 9178.92288811553 
1023	 9269.14420523734 
1024	 9359.5856115412 
1025	 9446.06898819663 
1026	 9530.47097517571 
1027	 9610.70017490952 
1028	 9687.31059054991 
1029	 9762.18518521138 
1030	 9833.92936286882 
1031	 9902.35048416309 
1032	 9967.72787590572 
1033	 10028.9358378037 
1034	 10082.8533474455 
1035	 10127.374478329 
1036	 10174.3450909498 
1037	 10216.4269756319 
1038	 10247.2910398644 
1039	 10277.7610461452 
1040	 10306.0173117556 
1041	 10328.0159292364 
1042	 10346.9946887625 
1043	 10366.8763840624 
1044	 10382.7056943947 
1045	 10391.8413185632 
1046	 10393.8397424097 
1047	 10399.0288096154 
1048	 10406.1613348266 
1049	 10411.8208068258 
1050	 10412.3288232821 
1051	 10411.0071768837 
1052	 10417.8769897231 
1053	 10424.6937462705 
1054	 10430.9156086466 
1055	 10442.9568232996 
1056	 10460.5871538234 
1057	 10475.6669971785 
1058	 10493.4812945619 
1059	 10519.1037189648 
1060	 10546.6983208896 
1061	 10568.5040437561 
1062	 10595.362812671 
1063	 10625.5033400687 
1064	 10660.9026133544 
1065	 10716.7254696585 
1066	 10777.2400015398 
1067	 10839.242454438 
1068	 10907.4963030285 
1069	 10983.9002612838 
1070	 11054.2714028897 
1071	 11130.3927927983 
1072	 11218.4861831819 
1073	 11311.8478371284 
1074	 11413.0779987252 
1075	 11520.4860050379 
1076	 11636.9258425956 
1077	 11758.8189537783 
1078	 11887.56384079 
1079	 12026.6698939957 
1080	 12170.0920709046 
1081	 12320.2223210437 
1082	 12474.6545633187 
1083	 12634.5214807831 
1084	 12796.775104576 
1085	 12954.9761534739 
1086	 13115.5467969818 
1087	 13278.451016637 
1088	 13436.2637746475 
1089	 13597.4694852325 
1090	 13759.6618204364 
1091	 13918.3736938844 
1092	 14076.3952514694 
1093	 14234.3944034065 
1094	 14394.5476133196 
1095	 14550.42357536 
1096	 14705.1148451371 
1097	 14856.2074927119 
1098	 15005.14377523 
1099	 15147.1971680576 
1100	 15282.3270316983 
1101	 15414.2401593045 
1102	 15534.8005380537 
1103	 15652.5166883626 
1104	 15773.3778310105 
1105	 15891.6214879114 
1106	 16009.9844903264 
1107	 16132.2625262409 
1108	 16250.0335220471 
1109	 16369.3751789558 
1110	 16476.024106262 
1111	 16577.2331946107 
1112	 16673.0273460599 
1113	 16758.7108978257 
1114	 16843.0607637517 
1115	 16930.2950307488 
1116	 17019.4837029937 
1117	 17106.6160518295 
1118	 17191.3239987484 
1119	 17271.5989622075 
1120	 17347.5570117569 
1121	 17424.8228871491 
1122	 17494.5379311466 
1123	 17572.1194977108 
1124	 17655.0321229742 
1125	 17735.8346153838 
1126	 17816.3314977791 
1127	 17904.1684834698 
1128	 17986.7423988099 
1129	 18065.8064359012 
1130	 18144.2379552721 
1131	 18214.0397809039 
1132	 18277.8727986117 
1133	 18332.7845576874 
1134	 18393.274476072 
1135	 18446.0728666995 
1136	 18506.5840950419 
1137	 18574.4801799278 
1138	 18637.3847172219 
1139	 18704.3424077644 
1140	 18763.8593614206 
1141	 18818.8671765006 
1142	 18872.6471195155 
1143	 18922.5515376234 
1144	 18965.5303547296 
1145	 19007.5256037831 
1146	 19048.2476504684 
1147	 19090.1231661633 
1148	 19129.3077167645 
1149	 19172.4113407273 
1150	 19219.395730842 
1151	 19263.3815491064 
1152	 19305.1096629127 
1153	 19350.3260792853 
1154	 19396.9457725251 
1155	 19443.0004908637 
1156	 19491.4523359259 
1157	 19539.497600688 
1158	 19587.2429472771 
1159	 19630.5296337349 
1160	 19669.0149171149 
1161	 19703.7126644635 
1162	 19742.0552146768 
1163	 19776.8191647836 
1164	 19816.3919122343 
1165	 19867.811139958 
1166	 19902.7686651061 
1167	 19928.1586217314 
1168	 19956.2204550694 
1169	 19973.2038742987 
1170	 19999.2903684403 
1171	 20033.2533891353 
1172	 20065.0396930049 
1173	 20093.6078042314 
1174	 20120.6131301666 
1175	 20147.6213983775 
1176	 20173.5897321457 
1177	 20195.1745808445 
1178	 20214.921490667 
1179	 20234.5263913343 
1180	 20251.547776712 
1181	 20265.2942627764 
1182	 20274.396499503 
1183	 20290.7792916835 
1184	 20305.7452092602 
1185	 20322.3058121062 
1186	 20347.5008948139 
1187	 20369.075645321 
1188	 20388.2406071818 
1189	 20404.3921675079 
1190	 20424.5688088845 
1191	 20447.4886873437 
1192	 20468.9396451114 
1193	 20487.6589290003 
1194	 20513.6665992964 
1195	 20545.4123244035 
1196	 20571.77784607 
1197	 20600.8620497257 
1198	 20627.9634153137 
1199	 20648.0231676206 
1200	 20673.6238193002 
1201	 20702.6101688285 
1202	 20732.3119902598 
1203	 20761.3340430996 
1204	 20794.5726904798 
1205	 20835.451731433 
1206	 20873.6167964932 
1207	 20908.0303721682 
1208	 20941.3841492754 
1209	 20977.7583542266 
1210	 21010.6337175025 
1211	 21046.2996313744 
1212	 21088.5959720125 
1213	 21126.2231250959 
1214	 21157.2163108176 
1215	 21194.7575419906 
1216	 21238.0906523497 
1217	 21277.3199824862 
1218	 21320.2708681169 
1219	 21357.5602797823 
1220	 21389.5193536047 
1221	 21419.2680473112 
1222	 21451.6926100841 
1223	 21481.7496451685 
1224	 21515.5850972726 
1225	 21554.3446674386 
1226	 21587.1296091241 
1227	 21623.5475418824 
1228	 21647.8806160176 
1229	 21660.1685484774 
1230	 21679.8202950262 
1231	 21698.125211846 
1232	 21712.8698058073 
1233	 21733.724154805 
1234	 21745.4039871554 
1235	 21744.0031492587 
1236	 21746.8498363272 
1237	 21749.1583836837 
1238	 21748.5950177273 
1239	 21752.9407938812 
1240	 21762.6603140747 
1241	 21763.0851341863 
1242	 21762.8381450335 
1243	 21758.6915808608 
1244	 21749.5551558387 
1245	 21736.8570283439 
1246	 21718.4071486425 
1247	 21704.3750481419 
1248	 21687.7335063163 
1249	 21671.1416946389 
1250	 21658.4206864262 
1251	 21643.7403945267 
1252	 21623.0443082656 
1253	 21606.6772116977 
1254	 21592.2891415416 
1255	 21580.3061081383 
1256	 21569.8861033427 
1257	 21563.5552739022 
1258	 21551.7677183795 
1259	 21542.247082863 
1260	 21525.4449670854 
1261	 21501.7962257557 
1262	 21480.2997936499 
1263	 21458.273975289 
1264	 21431.9886933343 
1265	 21406.563341099 
1266	 21374.310465836 
1267	 21333.3484202924 
1268	 21294.4251650021 
1269	 21256.6336836013 
1270	 21211.7165918357 
1271	 21165.9770547083 
1272	 21113.3672248753 
1273	 21056.625368056 
1274	 20991.4091432189 
1275	 20927.5117638655 
1276	 20859.5747390392 
1277	 20794.3330987577 
1278	 20727.3978779372 
1279	 20661.5884907306 
1280	 20598.8198801366 
1281	 20532.426239877 
1282	 20464.0594930208 
1283	 20395.2828551649 
1284	 20320.1806471126 
1285	 20253.199239129 
1286	 20188.0548650291 
1287	 20127.0394844212 
1288	 20070.7966946228 
1289	 20018.9680760675 
1290	 19972.0503987075 
1291	 19925.1643075269 
1292	 19884.0178270213 
1293	 19846.1557242953 
1294	 19816.3218401009 
1295	 19789.2993189872 
1296	 19772.531197041 
1297	 19769.3834217461 
1298	 19762.3715593977 
1299	 19760.0510223684 
1300	 19758.2776913308 
1301	 19753.7716931977 
1302	 19757.1462028918 
1303	 19767.790230177 
1304	 19778.3340406929 
1305	 19792.351754111 
1306	 19808.3864677028 
1307	 19825.7701791371 
1308	 19843.5735548901 
1309	 19869.1536200327 
1310	 19900.3787590934 
1311	 19926.2914298083 
1312	 19952.8229400441 
1313	 19981.1399477854 
1314	 20008.985812027 
1315	 20035.1575728341 
1316	 20063.0268875518 
1317	 20090.8524682367 
1318	 20115.7322579917 
1319	 20141.4458555405 
1320	 20171.5865085996 
1321	 20197.728158861 
1322	 20218.4869817416 
1323	 20241.9989509412 
1324	 20270.1978731246 
1325	 20291.6140936451 
1326	 20312.86532822 
1327	 20328.8051843853 
1328	 20337.4883377448 
1329	 20339.3808981701 
1330	 20348.7931703901 
1331	 20357.5069163145 
1332	 20368.6283586375 
1333	 20388.62681471 
1334	 20395.7623426489 
1335	 20397.4063282911 
1336	 20397.3829089067 
1337	 20389.9908067526 
1338	 20384.7065726783 
1339	 20380.0616633008 
1340	 20372.837527662 
1341	 20370.4956395789 
1342	 20354.0449032187 
1343	 20332.7401971045 
1344	 20302.8032155564 
1345	 20260.4452270453 
1346	 20213.7630757305 
1347	 20163.6010096043 
1348	 20103.8483941994 
1349	 20038.6414711227 
1350	 19961.563321708 
1351	 19875.2727964072 
1352	 19775.1022320409 
1353	 19678.1311192574 
1354	 19571.0411445754 
1355	 19470.4148390559 
1356	 19373.9108974812 
1357	 19271.8089923678 
1358	 19164.6412674043 
1359	 19061.5804163644 
1360	 18931.512250343 
1361	 18854.4147690582 
1362	 18792.7742595576 
1363	 18761.5488068145 
1364	 18794.9884148568 
1365	 18803.7228429442 
1366	 18822.4316370674 
1367	 18835.6261179787 
1368	 18839.0833106522 
1369	 18840.8940701605 
1370	 18864.9666454511 
1371	 18895.2001404434 
1372	 18915.0633000307 
1373	 18961.4107138473 
1374	 18940.7638798016 
1375	 18908.4002414451 
1376	 18809.0583258012 
1377	 18652.0324817317 
1378	 18476.6713835031 
1379	 18223.8399548149 
1380	 18021.5624194691 
1381	 17784.1195242692 
1382	 17617.6611663185 
1383	 17498.4426625047 
1384	 17389.2977386634 
1385	 17348.1480057011 
1386	 17263.4545252127 
1387	 17193.2992103568 
1388	 17078.9620194073 
1389	 16942.1969242476 
1390	 16767.4641057338 
1391	 16562.8155685828 
1392	 16342.3677540818 
1393	 16108.1314254819 
1394	 15879.7779098598 
1395	 15673.8248964887 
1396	 15477.6619641121 
1397	 15290.4919726797 
1398	 15122.8407167813 
1399	 14951.9990911433 
1400	 14784.1436338049 
1401	 14622.6457876569 
1402	 14468.290910814 
1403	 14316.6951770447 
1404	 14166.4714351714 
1405	 14024.4493782564 
1406	 13884.2642044168 
1407	 13758.7550181742 
1408	 13642.1579385604 
1409	 13536.6059415305 
1410	 13445.8756749812 
1411	 13358.9947160259 
1412	 13286.8690745151 
1413	 13210.236487403 
1414	 13134.0827052077 
1415	 13064.5436579687 
1416	 12994.1849630143 
1417	 12917.5989661928 
1418	 12849.856566256 
1419	 12787.3582181143 
1420	 12731.5098120173 
1421	 12682.4724020711 
1422	 12635.3622540368 
1423	 12594.4584737278 
1424	 12554.1966211914 
1425	 12514.5811751063 
1426	 12480.6637588189 
1427	 12451.8820703447 
1428	 12424.8084670477 
1429	 12400.5008336689 
1430	 12379.481610114 
1431	 12362.1394604504 
1432	 12346.4281657211 
1433	 12333.8028349179 
1434	 12323.4116199411 
1435	 12315.4958493166 
1436	 12308.6972936997 
1437	 12306.3457846995 
1438	 12301.9866614192 
1439	 12296.5012090397 
1440	 12292.2289129485 
1441	 12288.4590530462 
1442	 12288.8302140049 
1443	 12292.7667193842 
1444	 12296.8835919242 
1445	 12303.346406046 
1446	 12312.3814531709 
1447	 12320.6487024839 
1448	 12330.6277752333 
1449	 12339.0913528672 
1450	 12346.552190029 
1451	 12355.2202255008 
1452	 12362.2530353168 
1453	 12374.8310205813 
1454	 12390.7086957146 
1455	 12405.6933128134 
1456	 12428.325117329 
1457	 12441.292943519 
1458	 12446.2209297966 
1459	 12457.3624831963 
1460	 12465.6589488751 
1461	 12475.6332710662 
1462	 12491.8649051772 
1463	 12504.3764782657 
1464	 12510.1026203202 
1465	 12523.9871015503 
1466	 12544.9302570778 
1467	 12561.1447063451 
1468	 12577.9465667126 
1469	 12595.7295632451 
1470	 12613.3996783959 
1471	 12630.8422008101 
1472	 12652.2132374303 
1473	 12679.2336100467 
1474	 12704.2464835039 
1475	 12728.9085676387 
1476	 12752.3743148521 
1477	 12776.6674385356 
1478	 12800.9721008546 
1479	 12822.0898567373 
1480	 12850.1163533481 
1481	 12885.2314921874 
1482	 12912.6386093372 
1483	 12939.5379943995 
1484	 12964.519115816 
1485	 12983.0909566829 
1486	 13006.5633040794 
1487	 13032.5677500023 
1488	 13058.8074649296 
1489	 13084.285847748 
1490	 13112.5143429973 
1491	 13143.2777745306 
1492	 13173.664136187 
1493	 13208.3765823278 
1494	 13239.0244576306 
1495	 13268.3495834697 
1496	 13295.5529566835 
1497	 13320.2819583291 
1498	 13343.5315698607 
1499	 13362.2338955551 
1500	 13384.4663253103 
1501	 13409.6938251433 
1502	 13428.8559341469 
1503	 13453.4125355435 
1504	 13481.0822134532 
1505	 13507.1937724923 
1506	 13533.5104163013 
1507	 13557.5153641956 
1508	 13580.7608384928 
1509	 13604.0526222168 
1510	 13626.4039870766 
1511	 13646.5063456317 
1512	 13665.5243361587 
1513	 13684.6971921902 
1514	 13700.5924634066 
1515	 13720.1773253847 
1516	 13742.9727536531 
1517	 13763.6408236345 
1518	 13783.6767237585 
1519	 13804.5744444262 
1520	 13828.3268097294 
1521	 13845.5907589568 
1522	 13857.9644515867 
1523	 13874.7183228907 
1524	 13889.2429346697 
1525	 13904.8744255257 
1526	 13928.2150205822 
1527	 13943.0256317678 
1528	 13950.147158224 
1529	 13960.6100542536 
1530	 13969.6959410209 
1531	 13978.5755526268 
1532	 13986.2166893444 
1533	 13997.3295362903 
1534	 14011.973949837 
1535	 14022.513533847 
1536	 14033.7924540368 
1537	 14044.26880969 
1538	 14049.1228836559 
1539	 14056.4046646853 
1540	 14064.9925489266 
1541	 14077.1569647154 
1542	 14081.8642765177 
1543	 14088.3098479506 
1544	 14097.450968488 
1545	 14107.1407462843 
1546	 14115.0324491216 
1547	 14125.9532728453 
1548	 14133.3911155278 
1549	 14136.8375387385 
1550	 14141.3799207641 
1551	 14146.711776596 
1552	 14150.9508314102 
1553	 14153.691271831 
1554	 14156.1051501708 
1555	 14157.5777928193 
1556	 14161.3490898558 
1557	 14164.8086891299 
1558	 14168.8223906159 
1559	 14176.8543891568 
1560	 14179.8600590066 
1561	 14179.5622881607 
1562	 14180.4027342982 
1563	 14179.4542293043 
1564	 14179.8811919534 
1565	 14180.4180847065 
1566	 14182.1860651034 
1567	 14185.0848633389 
1568	 14187.3682770004 
1569	 14192.0148519365 
1570	 14193.1380134214 
1571	 14191.9324611465 
1572	 14190.7834750509 
1573	 14187.120755419 
1574	 14184.9898167922 
1575	 14183.106788316 
1576	 14181.8882272739 
1577	 14184.4646051731 
1578	 14181.273285111 
1579	 14175.3924832939 
1580	 14169.0981074179 
1581	 14156.3380978578 
1582	 14148.1128571394 
1583	 14143.8997666324 
1584	 14137.3246745842 
1585	 14130.3442547447 
1586	 14124.3017359933 
1587	 14117.2973453561 
1588	 14110.9417362704 
1589	 14106.7858839836 
1590	 14101.4836957767 
1591	 14094.2867307716 
1592	 14088.7463953791 
1593	 14084.7688333264 
1594	 14079.7350449435 
1595	 14076.0407703644 
1596	 14070.3026711335 
1597	 14064.8016436168 
1598	 14059.4971871625 
1599	 14048.8213121516 
1600	 14035.3200929567 
1601	 14024.6258405737 
1602	 14009.4008572252 
1603	 14001.0673508547 
1604	 13998.6775239785 
1605	 13992.0522046898 
1606	 13987.6243095885 
1607	 13976.5787863618 
1608	 13962.9114944176 
1609	 13946.4074788851 
1610	 13924.4723887227 
1611	 13904.3746067586 
1612	 13881.5046814313 
1613	 13863.6287274797 
1614	 13848.8203374367 
1615	 13829.5190189017 
1616	 13811.0437435916 
1617	 13791.7020052534 
1618	 13767.4536419592 
1619	 13748.1846781598 
1620	 13733.9242421553 
1621	 13714.5026556845 
1622	 13694.8560919025 
1623	 13672.0046894846 
1624	 13645.6546158837 
1625	 13619.4968384455 
1626	 13591.2256078878 
1627	 13563.9090083319 
1628	 13535.8477331123 
1629	 13509.1651881024 
1630	 13482.0986995317 
1631	 13456.9581786034 
1632	 13434.950907733 
1633	 13409.4730185475 
1634	 13387.3655176367 
1635	 13355.9316376022 
1636	 13315.1737000211 
1637	 13281.1121103594 
1638	 13246.0931528001 
1639	 13209.8329004595 
1640	 13176.2234321244 
1641	 13141.3388136468 
1642	 13101.6834870908 
1643	 13065.1873871523 
1644	 13033.03107761 
1645	 12997.7745762485 
1646	 12961.0136937646 
1647	 12923.5714836283 
1648	 12883.7347851254 
1649	 12847.5836163486 
1650	 12814.7163593876 
1651	 12776.6492194816 
1652	 12740.8373406983 
1653	 12698.8456503365 
1654	 12646.1238515906 
1655	 12601.5499677365 
1656	 12559.746507201 
1657	 12515.789385281 
1658	 12477.6074140466 
1659	 12431.1388253503 
1660	 12379.5959705027 
1661	 12325.6071583955 
1662	 12263.5479280883 
1663	 12207.6676213558 
1664	 12150.8110343151 
1665	 12096.7842822834 
1666	 12048.6955006469 
1667	 11997.3512430791 
1668	 11943.6532098846 
1669	 11893.6213528023 
1670	 11841.8970913727 
1671	 11795.1412827024 
1672	 11753.0255376163 
1673	 11712.9670596126 
1674	 11678.1212619327 
1675	 11642.3164775158 
1676	 11611.3662908369 
1677	 11572.6530776584 
1678	 11528.9807797027 
1679	 11486.558362582 
1680	 11439.8556217176 
1681	 11394.6293412776 
1682	 11351.4910661862 
1683	 11308.4395687982 
1684	 11264.6016694548 
1685	 11221.0948268769 
1686	 11180.3378500881 
1687	 11134.6513367728 
1688	 11087.2043506408 
1689	 11036.9711554435 
1690	 10975.4716444673 
1691	 10929.2007288334 
1692	 10891.3745670574 
1693	 10849.2257551346 
1694	 10818.6104438953 
1695	 10777.5214837203 
1696	 10722.2213534241 
1697	 10677.3298302516 
1698	 10636.5766226367 
1699	 10593.7032712645 
1700	 10554.2354178125 
1701	 10512.2609200002 
1702	 10466.8021548476 
1703	 10423.0138441843 
1704	 10378.9081612052 
1705	 10338.4411229311 
1706	 10298.1821522983 
1707	 10260.8390001584 
1708	 10232.3268530581 
1709	 10193.70404164 
1710	 10149.6047287699 
1711	 10110.1508413004 
1712	 10067.4100669693 
1713	 10024.8041316997 
1714	 9987.48197375856 
1715	 9945.9061185294 
1716	 9900.21936335823 
1717	 9853.95990706989 
1718	 9806.28445356681 
1719	 9759.65137931235 
1720	 9708.31626587054 
1721	 9665.43834314368 
1722	 9632.50127597219 
1723	 9589.76923037554 
1724	 9543.66639678315 
1725	 9501.09638457175 
1726	 9453.09652676926 
1727	 9411.13484354931 
1728	 9376.26861006927 
1729	 9339.59912515682 
1730	 9302.105534725 
1731	 9267.55842052555 
1732	 9237.11358542898 
1733	 9203.96330011464 
1734	 9173.06366357881 
1735	 9135.671126568 
1736	 9093.61676117442 
1737	 9053.99494660526 
1738	 9009.97552689751 
1739	 8971.59704516753 
1740	 8937.23071812665 
1741	 8901.16676194585 
1742	 8866.81428757863 
1743	 8828.21535580175 
1744	 8787.08400968616 
1745	 8747.33699391141 
1746	 8713.04377240216 
1747	 8674.33234043991 
1748	 8634.76019690121 
1749	 8595.0051079899 
1750	 8549.05469135457 
1751	 8511.2062501117 
1752	 8471.95380821312 
1753	 8432.17379832446 
1754	 8398.77896527788 
1755	 8360.54310573297 
1756	 8325.21154939583 
1757	 8288.89833890431 
1758	 8243.50609261682 
1759	 8193.01208237085 
1760	 8140.56595918466 
1761	 8093.98474489883 
1762	 8051.53461635594 
1763	 8009.4859791415 
1764	 7971.59892387296 
1765	 7926.79140968636 
1766	 7876.24065401114 
1767	 7837.68526912985 
1768	 7799.99588188442 
1769	 7765.88158195802 
1770	 7738.4318756922 
1771	 7704.04971913004 
1772	 7671.36443154983 
1773	 7637.28651773065 
1774	 7593.20659214517 
1775	 7547.28595666288 
1776	 7505.40132097838 
1777	 7464.01941151094 
1778	 7428.52535917988 
1779	 7397.55600015838 
1780	 7363.85171446502 
1781	 7325.66503858484 
1782	 7287.72999602482 
1783	 7250.8667372135 
1784	 7216.14679571822 
1785	 7183.52398182092 
1786	 7149.63862689449 
1787	 7117.08168916323 
1788	 7080.22557765346 
1789	 7038.81720567238 
1790	 7000.47491626016 
1791	 6961.42598077666 
1792	 6920.95920894987 
1793	 6879.81360001211 
1794	 6842.99801160333 
1795	 6810.43668920223 
1796	 6776.74396441632 
1797	 6739.5112733902 
1798	 6702.34346362618 
1799	 6655.9169070452 
1800	 6611.83791733388 
1801	 11743.4891901258 
1802	 11876.7920239718 
1803	 12006.1987912516 
1804	 12146.060268782 
1805	 12267.2621572675 
1806	 12381.602916521 
1807	 12487.0589788058 
1808	 12586.9758240341 
1809	 12684.7810836457 
1810	 12763.5884769134 
1811	 12821.8181002596 
1812	 12890.1930568415 
1813	 12955.5315377941 
1814	 13004.5647153613 
1815	 13054.2052401407 
1816	 13112.2391964972 
1817	 13143.6155573861 
1818	 13165.7270761765 
1819	 13214.0298164021 
1820	 13278.5422540816 
1821	 13336.0128073766 
1822	 13403.9553858739 
1823	 13481.4215303046 
1824	 13528.7425528781 
1825	 13573.1293387838 
1826	 13621.2542329424 
1827	 13658.7806974532 
1828	 13706.8780192946 
1829	 13774.2704579462 
1830	 13815.1073968375 
1831	 13850.3205351545 
1832	 13880.8057786991 
1833	 13877.44469601 
1834	 13859.4440654315 
1835	 13835.5862706543 
1836	 13819.4504934722 
1837	 13822.3597152468 
1838	 13856.2327208046 
1839	 13914.285884868 
1840	 14021.9618050862 
1841	 14098.4613283999 
1842	 14198.8910964637 
1843	 14278.8202815586 
1844	 14290.7485079356 
1845	 14318.73619982 
1846	 14342.3373129982 
1847	 14356.4430016758 
1848	 14392.1139972119 
1849	 14471.1016436704 
1850	 14500.6551394625 
1851	 14521.7563962159 
1852	 14524.233716445 
1853	 14496.7190329938 
1854	 14463.8476547032 
1855	 14413.9199108138 
1856	 14375.1153072724 
1857	 14336.6139662217 
1858	 14293.4532087682 
1859	 14266.2965170015 
1860	 14279.0042446579 
1861	 14232.0764436297 
1862	 14186.5889016298 
1863	 14106.1456194321 
1864	 13951.1626683967 
1865	 13756.452050344 
1866	 13489.5640920929 
1867	 13208.4138075449 
1868	 12924.2339000521 
1869	 12645.3303542841 
1870	 12423.5870421348 
1871	 12242.3351507445 
1872	 12093.7689412295 
1873	 11994.0909936673 
1874	 11912.6713598142 
1875	 11863.0868951427 
1876	 11816.974776388 
1877	 11743.5663097121 
1878	 11668.0718912264 
1879	 11535.9302646304 
1880	 11364.4655227483 
1881	 11187.7094744075 
1882	 10982.637317079 
1883	 10765.7130822709 
1884	 10555.2176887343 
1885	 10335.0046354165 
1886	 10119.3866233986 
1887	 9904.46533103925 
1888	 9677.86977398351 
1889	 9479.05228942517 
1890	 9293.03733015882 
1891	 9118.40998799409 
1892	 8948.78457458007 
1893	 8820.59486716181 
1894	 8685.84238551215 
1895	 8542.8333231648 
1896	 8401.03928675023 
1897	 8225.78274801045 
1898	 8057.25028589818 
1899	 7911.52123008373 
1900	 7782.1974465476 
1901	 7671.46672995478 
1902	 7574.14497037207 
1903	 7495.47729244937 
1904	 7432.29796984647 
1905	 7370.34433698854 
1906	 7333.19381489329 
1907	 7312.0257339348 
1908	 7285.30050029804 
1909	 7266.26144508822 
1910	 7233.12664880811 
1911	 7193.05213445043 
1912	 7156.4563009642 
1913	 7126.79741463685 
1914	 7096.49110410181 
1915	 7084.9285350123 
1916	 7071.84498611517 
1917	 7042.10809378905 
1918	 7011.49740645721 
1919	 6974.75454431314 
1920	 6941.78662371941 
1921	 6943.06378869452 
1922	 6958.39260326112 
1923	 6976.15499450451 
1924	 6989.9824313202 
1925	 7011.67397058284 
1926	 7019.62188263765 
1927	 7028.83757299621 
1928	 7033.71956401199 
1929	 7030.98761126682 
1930	 7044.26774539264 
1931	 7051.3530634852 
1932	 7060.32685213405 
1933	 7084.43733044842 
1934	 7095.09135934504 
1935	 7105.6996353878 
1936	 7111.83181768298 
1937	 7119.57108323395 
1938	 7135.78368469397 
1939	 7154.35382307078 
1940	 7178.58387053008 
1941	 7211.74817521986 
1942	 7223.0254405219 
1943	 7243.57983217845 
1944	 7272.04204560963 
1945	 7284.2732751927 
1946	 7301.28229424419 
1947	 7320.68906573439 
1948	 7342.35736440317 
1949	 7359.59401895891 
1950	 7387.99177653696 
1951	 7421.82533982946 
1952	 7451.12438114229 
1953	 7474.50652397677 
1954	 7495.24858423344 
1955	 7510.74453619284 
1956	 7529.15512805145 
1957	 7552.64976090512 
1958	 7576.01960773406 
1959	 7596.57539886141 
1960	 7618.40280936458 
1961	 7636.48338362094 
1962	 7653.26750664826 
1963	 7670.95153490686 
1964	 7688.32224326845 
1965	 7714.40250487302 
1966	 7741.88878769112 
1967	 7762.95664609457 
1968	 7783.18147496314 
1969	 7801.49854113378 
1970	 7824.56990529431 
1971	 7851.34090881852 
1972	 7872.12123801832 
1973	 7892.72636419945 
1974	 7916.09057150818 
1975	 7935.67840563569 
1976	 7947.57218965478 
1977	 7958.41404030186 
1978	 7979.28644168527 
1979	 7991.44971742144 
1980	 8012.39829333035 
1981	 8049.65170180932 
1982	 8066.74909612902 
1983	 8085.18911413367 
1984	 8098.77748589639 
1985	 8113.92235716886 
1986	 8119.50558128471 
1987	 8144.92089488444 
1988	 8167.28178165929 
1989	 8194.9957030682 
1990	 8218.41185977582 
1991	 8232.32381106529 
1992	 8256.88368400622 
1993	 8283.89470707175 
1994	 8304.25568151401 
1995	 8324.9087398431 
1996	 8345.07781316929 
1997	 8360.94300356451 
1998	 8373.70525955997 
1999	 8386.59024295851 
2000	 8398.8811610753 
2001	 8408.21877569568 
2002	 8414.49885758588 
2003	 8423.95421460747 
2004	 8446.91240378804 
2005	 8463.44517412113 
2006	 8483.63152691591 
2007	 8500.23335959273 
2008	 8514.78333810297 
2009	 8525.8802672579 
2010	 8532.90767204553 
2011	 8541.71638030546 
2012	 8546.01116953676 
2013	 8560.81597435706 
2014	 8577.234596578 
2015	 8587.48963055946 
2016	 8599.7800657999 
2017	 8614.35170984815 
2018	 8625.38520324581 
2019	 8636.27294515397 
2020	 8643.37596113781 
2021	 8648.36792293198 
2022	 8648.65798587905 
2023	 8642.22239389159 
2024	 8641.0145043559 
2025	 8640.52252506408 
2026	 8637.39327313354 
2027	 8632.43487468555 
2028	 8620.54720581373 
2029	 8614.42967820629 
2030	 8610.66627025358 
2031	 8609.65382267392 
2032	 8621.85033264724 
2033	 8623.08733919172 
2034	 8618.77340472692 
2035	 8613.63618327527 
2036	 8609.07280300209 
2037	 8596.80839277749 
2038	 8573.11815525282 
2039	 8557.18296942081 
2040	 8538.72039424662 
2041	 8526.34825928875 
2042	 8513.41065487298 
2043	 8511.57219034878 
2044	 8508.78522688524 
2045	 8488.37661816948 
2046	 8478.99258633943 
2047	 8472.06708799935 
2048	 8458.33747767178 
2049	 8444.31080438777 
2050	 8430.57412717839 
2051	 8405.62560360494 
2052	 8390.62940108206 
2053	 8384.5483455734 
2054	 8368.69796771277 
2055	 8361.11989687648 
2056	 8364.54697563362 
2057	 8348.73851004711 
2058	 8340.8644153323 
2059	 8330.52025675744 
2060	 8308.35829717762 
2061	 8296.16530400344 
2062	 8287.5687879393 
2063	 8281.91793970794 
2064	 8284.54152162755 
2065	 8278.17269130524 
2066	 8273.43471226582 
2067	 8268.59878300684 
2068	 8261.23266795166 
2069	 8243.0851891422 
2070	 8238.07160076318 
2071	 8223.69006772652 
2072	 8206.53623642821 
2073	 8205.22393787916 
2074	 8203.37724560535 
2075	 8203.51522807619 
2076	 8199.86379118884 
2077	 8195.24280530074 
2078	 8186.17219787653 
2079	 8169.2213814575 
2080	 8164.42667172443 
2081	 8167.20793142816 
2082	 8163.69363193391 
2083	 8165.50062008786 
2084	 8158.74767828287 
2085	 8150.52473495545 
2086	 8142.23562534707 
2087	 8141.59627385206 
2088	 8145.88877006687 
2089	 8140.55857872673 
2090	 8142.74588922102 
2091	 8152.60377648064 
2092	 8151.49692051547 
2093	 8155.72751895673 
2094	 8173.85753911205 
2095	 8169.75048092512 
2096	 8149.78637857036 
2097	 8142.51946317014 
2098	 8122.8529462792 
2099	 8114.28957313415 
2100	 8119.98422857552 
2101	 8122.68738468994 
2102	 8118.03069282833 
2103	 8117.79293943247 
2104	 8116.27029544438 
2105	 8114.48298869509 
2106	 8112.378596419 
2107	 8106.2747915451 
2108	 8096.86861450602 
2109	 8075.47145599348 
2110	 8068.46084516858 
2111	 8064.70686751403 
2112	 8065.87411732884 
2113	 8085.71267945692 
2114	 8086.33904395133 
2115	 8077.51571168856 
2116	 8072.21942291109 
2117	 8063.58600579748 
2118	 8042.09386367713 
2119	 8036.81804422869 
2120	 8032.30575384809 
2121	 8016.98524286722 
2122	 8013.79972159386 
2123	 8013.84346156935 
2124	 8003.05480430681 
2125	 8000.74906863109 
2126	 8006.55409869455 
2127	 8006.83389223079 
2128	 8008.30058038174 
2129	 8009.56851310499 
2130	 8006.09258809713 
2131	 8003.89934432187 
2132	 8005.52010835656 
2133	 7999.47805260456 
2134	 7987.98404284146 
2135	 7982.22152612027 
2136	 7969.3190611912 
2137	 7961.03375748935 
2138	 7953.04134803633 
2139	 7948.45354577439 
2140	 7949.38768504785 
2141	 7938.32939671129 
2142	 7927.88355719758 
2143	 7917.96083542092 
2144	 7913.8715010279 
2145	 7915.16089034126 
2146	 7911.76143812844 
2147	 7911.38101815946 
2148	 7911.26883195496 
2149	 7904.10808933022 
2150	 7899.23831045305 
2151	 7906.42849271707 
2152	 7897.55555785937 
2153	 7875.16695542515 
2154	 7860.57801014247 
2155	 7836.24436955552 
2156	 7824.23923935545 
2157	 7823.15252412364 
2158	 7815.34988270939 
2159	 7814.08479883906 
2160	 7805.34265446526 
2161	 7795.1676326214 
2162	 7776.2778206918 
2163	 7769.16920876076 
2164	 7770.65993828583 
2165	 7763.71478951335 
2166	 7762.60834129539 
2167	 7754.3016214036 
2168	 7730.67192496243 
2169	 7715.84500542135 
2170	 7703.99751429028 
2171	 7690.33015692326 
2172	 7678.64460840985 
2173	 7667.68928038119 
2174	 7647.99340833846 
2175	 7635.18545027709 
2176	 7623.4624723594 
2177	 7609.30835406023 
2178	 7607.39975351407 
2179	 7600.75471620435 
2180	 7585.6700404223 
2181	 7572.70030272194 
2182	 7559.29027034172 
2183	 7542.62133213615 
2184	 7525.1459087169 
2185	 7503.75930552412 
2186	 7492.65374819784 
2187	 7488.88225089376 
2188	 7476.23426435628 
2189	 7469.81817023876 
2190	 7456.23334242894 
2191	 7435.78079795772 
2192	 7402.13645854453 
2193	 7379.59714584538 
2194	 7363.7544494419 
2195	 7342.07453231648 
2196	 7328.76214289609 
2197	 7316.31026885639 
2198	 7293.81755423145 
2199	 7278.51495188951 
2200	 7262.23035702128 
2201	 7233.16192866287 
2202	 7207.42783106198 
2203	 7183.90886402904 
2204	 7151.89500374344 
2205	 7124.9996358267 
2206	 7104.94336978002 
2207	 7086.02558519018 
2208	 7066.34218048863 
2209	 7044.21689129081 
2210	 7028.26353981657 
2211	 7002.96668055403 
2212	 6969.20368375148 
2213	 6940.76211634877 
2214	 6911.91572112183 
2215	 6879.32003281138 
2216	 6854.95224931919 
2217	 6832.75100186826 
2218	 6814.49563353459 
2219	 6791.90505966069 
2220	 6771.95355551127 
2221	 6749.60880770076 
2222	 6721.55546233845 
2223	 6703.79063657444 
2224	 6681.83218423829 
2225	 6650.16129433139 
2226	 6618.31235703355 
2227	 6578.93009971002 
2228	 6539.5677646039 
2229	 6492.89756726427 
2230	 6454.98970202266 
2231	 6422.40633011679 
2232	 6383.0652849427 
2233	 6342.10978438896 
2234	 6305.99825715016 
2235	 6267.74336318037 
2236	 6231.45774828032 
2237	 6205.82480520675 
2238	 6167.4665983689 
2239	 6119.84660449362 
2240	 6074.4814410574 
2241	 6032.92318911207 
2242	 5987.69890125349 
2243	 5945.0858386229 
2244	 5902.28384657456 
2245	 5852.89560537055 
2246	 5802.9643711082 
2247	 5764.87228681808 
2248	 5721.47892918782 
2249	 5668.28890999491 
2250	 5621.95454795132 
2251	 5564.54854542383 
2252	 5502.90559458458 
2253	 5454.6041496166 
2254	 5409.53525254111 
2255	 5366.98098508761 
2256	 5332.69106627888 
2257	 5295.5850552215 
2258	 5259.70645882473 
2259	 5217.48258843108 
2260	 5174.42709681523 
2261	 5126.70202360392 
2262	 5072.79041461374 
2263	 5021.57953237976 
2264	 4966.4463233427 
2265	 4916.25258956531 
2266	 4866.11710930978 
2267	 4822.52432284252 
2268	 4785.64705837635 
2269	 4746.69123446807 
2270	 4709.59640157008 
2271	 4673.28296073886 
2272	 4634.12366727938 
2273	 4595.76200229835 
2274	 4568.3078990129 
2275	 4538.82465160064 
2276	 4503.9802785223 
2277	 4477.23051878433 
2278	 4439.31901564586 
2279	 4402.26311126382 
2280	 4379.29962839722 
2281	 4349.90461226047 
2282	 4328.8317936423 
2283	 4310.72557952294 
2284	 4288.46109162563 
2285	 4268.62275737277 
2286	 4236.9878249673 
2287	 4202.7699549227 
2288	 4168.76263065056 
2289	 4124.5990524233 
2290	 4091.30093615048 
2291	 4068.07502360475 
2292	 4037.80095636636 
2293	 4012.73396975297 
2294	 3977.05394456058 
2295	 3927.1738924047 
2296	 3886.92258656286 
2297	 3844.67792237903 
2298	 3806.22840722508 
2299	 3779.69121440845 
2300	 3744.71429174429 
2301	 3703.80676488374 
2302	 3666.14012091413 
2303	 3629.49726940716 
2304	 3595.37302079778 
2305	 3569.13911556646 
2306	 3537.47825430636 
2307	 3505.08744296313 
2308	 3463.81207970641 
2309	 3415.83954567223 
2310	 3387.9211953134 
2311	 3362.96683522581 
2312	 3334.77539975418 
2313	 3309.79843336922 
2314	 3273.91811738316 
2315	 3234.2804228459 
2316	 3207.05417227197 
2317	 3187.15642531275 
2318	 3159.18427632637 
2319	 3135.35221026897 
2320	 3112.86048398049 
2321	 3078.02062192097 
2322	 3044.29438063622 
2323	 3006.71239286109 
2324	 2970.0443830634 
2325	 2948.86766908272 
2326	 2929.12147447664 
2327	 2902.70382914033 
2328	 2877.32222622034 
2329	 2854.04420123417 
2330	 2818.08902842251 
2331	 2782.47154095698 
2332	 2750.84261232144 
2333	 2716.70618746611 
2334	 2671.32750739235 
2335	 2640.27065826887 
2336	 2615.62734974367 
2337	 2588.94755367499 
2338	 2564.34245058582 
2339	 2543.57650131282 
2340	 2530.93929652938 
2341	 2512.67608366895 
2342	 2494.50679983664 
2343	 2474.04681093338 
2344	 2447.27851726388 
2345	 2422.68808022913 
2346	 2406.2421723861 
2347	 2376.72657955071 
2348	 2335.41682534414 
2349	 2303.71886929676 
2350	 2281.44779266791 
2351	 2254.68688600887 
2352	 2247.64167852994 
2353	 2244.79067493173 
2354	 2218.12288331548 
2355	 2198.47800358948 
2356	 2174.306662632 
2357	 2137.22356376349 
2358	 2117.44231059152 
2359	 2089.92624435188 
2360	 2063.89535839618 
2361	 2045.09337741366 
2362	 2015.31406664711 
2363	 1995.50213366806 
2364	 1973.66666169235 
2365	 1955.6972309908 
2366	 1942.45960627922 
2367	 1921.96244415404 
2368	 1906.48835100491 
2369	 1889.66217881524 
2370	 1872.27490634458 
2371	 1853.52018959242 
2372	 1837.74179205401 
2373	 1821.90188047371 
2374	 1800.65834894591 
2375	 1780.21784527977 
2376	 1756.04768919359 
2377	 1728.02994527077 
2378	 1704.69902544863 
2379	 1685.90246690052 
2380	 1664.49988131626 
2381	 1643.76547113506 
2382	 1626.1273795457 
2383	 1609.26921295716 
2384	 1590.10115118838 
2385	 1573.1831632045 
2386	 1551.96277243721 
2387	 1521.45193626395 
2388	 1496.53369893525 
2389	 1476.75257629243 
2390	 1455.95494183053 
2391	 1445.15463565244 
2392	 1442.60193498167 
2393	 1427.09260959484 
2394	 1404.38801278987 
2395	 1387.72938475354 
2396	 1368.40087206886 
2397	 1345.97106878435 
2398	 1328.54469748053 
2399	 1306.19544661572 
2400	 1281.50577825002 
2401	 1265.45217540128 
2402	 1255.20825767928 
2403	 1256.75254259214 
2404	 1255.19870839565 
2405	 1239.52051513381 
2406	 1225.91596929856 
2407	 1204.38929853487 
2408	 1182.67599862185 
2409	 1172.69183099045 
2410	 1156.32428578259 
2411	 1137.84995734207 
2412	 1121.28277695255 
2413	 1104.11473171376 
2414	 1088.11391710374 
2415	 1075.50726050037 
2416	 1060.98377197427 
2417	 1044.3375729666 
2418	 1025.02728606067 
2419	 1004.11374412151 
2420	 989.037280951013 
2421	 971.447003770573 
2422	 960.671896825418 
2423	 952.170293133533 
2424	 939.662098476481 
2425	 934.420000240468 
2426	 926.610622696174 
2427	 920.99940424977 
2428	 920.15206700789 
2429	 910.82799351236 
2430	 902.258930208243 
2431	 888.790761264229 
2432	 867.279387063011 
2433	 852.368890629239 
2434	 838.916983378387 
2435	 826.238649261885 
2436	 809.23959642871 
2437	 785.999200418673 
2438	 758.677763161475 
2439	 738.947094344162 
2440	 737.903439757125 
2441	 734.585702417361 
2442	 730.427537758204 
2443	 729.389909926904 
2444	 720.282007861846 
2445	 710.499013851932 
2446	 707.353511524685 
2447	 703.022152815435 
2448	 687.6365778518 
2449	 666.022268902687 
2450	 642.122200388232 
2451	 625.415166223491 
2452	 618.892462549013 
2453	 614.938608290295 
2454	 617.001559325888 
2455	 609.322785812264 
2456	 598.558138471404 
2457	 603.543909593004 
2458	 596.786282906921 
2459	 580.441231234304 
2460	 565.943993537544 
2461	 543.663901416753 
2462	 533.023397783636 
2463	 539.890664400785 
2464	 537.568750845836 
2465	 531.928997965743 
2466	 535.587650846616 
2467	 517.660984189157 
2468	 507.233626366184 
2469	 509.646465975999 
2470	 491.116331267866 
2471	 488.843827901575 
2472	 487.838990392979 
2473	 477.758632778129 
2474	 470.818092605146 
2475	 455.082905272502 
2476	 447.335800951056 
2477	 438.803868940425 
2478	 428.879161690993 
2479	 434.102626009089 
2480	 429.715043956273 
2481	 423.12582171636 
2482	 426.448310757067 
2483	 413.172778369471 
2484	 411.484121933749 
2485	 418.678710414744 
2486	 407.864747709721 
2487	 405.991519741733 
2488	 392.707784055028 
2489	 363.628187332077 
2490	 361.680382373233 
2491	 362.554754322878 
2492	 352.166906513687 
2493	 347.199997297414 
2494	 326.596165693488 
2495	 312.345072500586 
2496	 308.510015718777 
2497	 308.320263403182 
2498	 327.201040637381 
2499	 327.838168398335 
2500	 326.284550943365 
